546,507,481,461,611,350,682,1012,0
507,481,461,611,350,682,1012,481,0
481,461,611,350,682,1012,481,490,0
461,611,350,682,1012,481,490,468,0
611,350,682,1012,481,490,468,431,0
350,682,1012,481,490,468,431,643,0
682,1012,481,490,468,431,643,317,0
1012,481,490,468,431,643,317,623,0
481,490,468,431,643,317,623,956,0
490,468,431,643,317,623,956,457,0
468,431,643,317,623,956,457,556,0
431,643,317,623,956,457,556,527,0
643,317,623,956,457,556,527,459,0
317,623,956,457,556,527,459,642,0
623,956,457,556,527,459,642,287,0
956,457,556,527,459,642,287,580,0
457,556,527,459,642,287,580,927,0
556,527,459,642,287,580,927,424,0
527,459,642,287,580,927,424,513,0
459,642,287,580,927,424,513,522,0
642,287,580,927,424,513,522,431,0
287,580,927,424,513,522,431,712,0
580,927,424,513,522,431,712,269,0
927,424,513,522,431,712,269,563,0
424,513,522,431,712,269,563,959,0
513,522,431,712,269,563,959,405,0
522,431,712,269,563,959,405,563,0
431,712,269,563,959,405,563,541,0
712,269,563,959,405,563,541,447,0
269,563,959,405,563,541,447,725,0
563,959,405,563,541,447,725,298,0
959,405,563,541,447,725,298,569,0
405,563,541,447,725,298,569,941,0
563,541,447,725,298,569,941,410,0
541,447,725,298,569,941,410,547,0
447,725,298,569,941,410,547,522,0
725,298,569,941,410,547,522,463,0
298,569,941,410,547,522,463,706,0
569,941,410,547,522,463,706,318,0
941,410,547,522,463,706,318,615,0
410,547,522,463,706,318,615,957,0
547,522,463,706,318,615,957,461,0
522,463,706,318,615,957,461,581,0
463,706,318,615,957,461,581,517,0
706,318,615,957,461,581,517,494,0
318,615,957,461,581,517,494,702,0
615,957,461,581,517,494,702,326,0
957,461,581,517,494,702,326,629,0
461,581,517,494,702,326,629,1051,0
581,517,494,702,326,629,1051,464,0
517,494,702,326,629,1051,464,598,0
494,702,326,629,1051,464,598,462,0
702,326,629,1051,464,598,462,583,0
326,629,1051,464,598,462,583,842,0
629,1051,464,598,462,583,842,369,0
1051,464,598,462,583,842,369,678,0
464,598,462,583,842,369,678,1078,0
598,462,583,842,369,678,1078,420,0
462,583,842,369,678,1078,420,605,0
583,842,369,678,1078,420,605,495,0
842,369,678,1078,420,605,495,606,0
369,678,1078,420,605,495,606,798,0
678,1078,420,605,495,606,798,340,0
1078,420,605,495,606,798,340,638,0
420,605,495,606,798,340,638,980,0
605,495,606,798,340,638,980,411,0
495,606,798,340,638,980,411,575,0
606,798,340,638,980,411,575,539,0
798,340,638,980,411,575,539,622,0
340,638,980,411,575,539,622,789,0
638,980,411,575,539,622,789,314,0
980,411,575,539,622,789,314,606,0
411,575,539,622,789,314,606,953,0
575,539,622,789,314,606,953,394,0
539,622,789,314,606,953,394,591,0
622,789,314,606,953,394,591,596,0
789,314,606,953,394,591,596,599,0
314,606,953,394,591,596,599,734,0
606,953,394,591,596,599,734,296,0
953,394,591,596,599,734,296,549,0
394,591,596,599,734,296,549,960,0
591,596,599,734,296,549,960,329,0
596,599,734,296,549,960,329,579,0
599,734,296,549,960,329,579,647,0
734,296,549,960,329,579,647,644,0
296,549,960,329,579,647,644,737,0
549,960,329,579,647,644,737,291,0
960,329,579,647,644,737,291,485,0
329,579,647,644,737,291,485,812,0
579,647,644,737,291,485,812,350,0
647,644,737,291,485,812,350,546,0
644,737,291,485,812,350,546,650,0
737,291,485,812,350,546,650,599,0
291,485,812,350,546,650,599,669,0
485,812,350,546,650,599,669,268,0
812,350,546,650,599,669,268,356,0
350,546,650,599,669,268,356,718,0
546,650,599,669,268,356,718,376,0
650,599,669,268,356,718,376,604,0
599,669,268,356,718,376,604,639,0
669,268,356,718,376,604,639,659,0
268,356,718,376,604,639,659,703,0
356,718,376,604,639,659,703,293,0
718,376,604,639,659,703,293,363,0
376,604,639,659,703,293,363,768,0
604,639,659,703,293,363,768,400,0
639,659,703,293,363,768,400,671,0
659,703,293,363,768,400,671,614,0
703,293,363,768,400,671,614,685,0
293,363,768,400,671,614,685,803,0
363,768,400,671,614,685,803,336,0
768,400,671,614,685,803,336,432,0
400,671,614,685,803,336,432,841,0
671,614,685,803,336,432,841,416,0
614,685,803,336,432,841,416,652,0
685,803,336,432,841,416,652,616,0
803,336,432,841,416,652,616,684,0
336,432,841,416,652,616,684,825,0
432,841,416,652,616,684,825,332,0
841,416,652,616,684,825,332,411,0
416,652,616,684,825,332,411,753,0
652,616,684,825,332,411,753,412,0
616,684,825,332,411,753,412,635,0
684,825,332,411,753,412,635,634,0
825,332,411,753,412,635,634,645,0
332,411,753,412,635,634,645,793,0
411,753,412,635,634,645,793,315,0
753,412,635,634,645,793,315,404,0
412,635,634,645,793,315,404,714,0
635,634,645,793,315,404,714,361,0
634,645,793,315,404,714,361,618,0
645,793,315,404,714,361,618,620,0
793,315,404,714,361,618,620,621,0
315,404,714,361,618,620,621,769,0
404,714,361,618,620,621,769,300,0
714,361,618,620,621,769,300,405,0
361,618,620,621,769,300,405,701,0
618,620,621,769,300,405,701,321,0
620,621,769,300,405,701,321,544,0
621,769,300,405,701,321,544,595,0
769,300,405,701,321,544,595,557,0
300,405,701,321,544,595,557,696,0
405,701,321,544,595,557,696,282,0
701,321,544,595,557,696,282,392,0
321,544,595,557,696,282,392,600,0
544,595,557,696,282,392,600,305,0
595,557,696,282,392,600,305,538,0
557,696,282,392,600,305,538,621,0
696,282,392,600,305,538,621,520,0
282,392,600,305,538,621,520,648,0
392,600,305,538,621,520,648,232,0
600,305,538,621,520,648,232,436,0
305,538,621,520,648,232,436,675,0
538,621,520,648,232,436,675,304,0
621,520,648,232,436,675,304,574,0
520,648,232,436,675,304,574,556,0
648,232,436,675,304,574,556,482,0
232,436,675,304,574,556,482,649,0
436,675,304,574,556,482,649,253,0
675,304,574,556,482,649,253,447,0
304,574,556,482,649,253,447,715,0
574,556,482,649,253,447,715,303,0
556,482,649,253,447,715,303,637,0
482,649,253,447,715,303,637,507,0
649,253,447,715,303,637,507,458,0
253,447,715,303,637,507,458,675,0
447,715,303,637,507,458,675,257,0
715,303,637,507,458,675,257,468,0
303,637,507,458,675,257,468,759,0
637,507,458,675,257,468,759,317,0
507,458,675,257,468,759,317,722,0
458,675,257,468,759,317,722,509,0
675,257,468,759,317,722,509,607,0
257,468,759,317,722,509,607,718,0
468,759,317,722,509,607,718,314,0
759,317,722,509,607,718,314,521,0
317,722,509,607,718,314,521,812,0
722,509,607,718,314,521,812,326,0
509,607,718,314,521,812,326,734,0
607,718,314,521,812,326,734,549,0
718,314,521,812,326,734,549,584,0
314,521,812,326,734,549,584,724,0
521,812,326,734,549,584,724,313,0
812,326,734,549,584,724,313,562,0
326,734,549,584,724,313,562,869,0
734,549,584,724,313,562,869,301,0
549,584,724,313,562,869,301,679,0
584,724,313,562,869,301,679,477,0
724,313,562,869,301,679,477,564,0
313,562,869,301,679,477,564,670,0
562,869,301,679,477,564,670,315,0
869,301,679,477,564,670,315,497,0
301,679,477,564,670,315,497,740,0
679,477,564,670,315,497,740,311,0
477,564,670,315,497,740,311,666,0
564,670,315,497,740,311,666,505,0
670,315,497,740,311,666,505,614,0
315,497,740,311,666,505,614,705,0
497,740,311,666,505,614,705,329,0
740,311,666,505,614,705,329,502,0
311,666,505,614,705,329,502,684,0
666,505,614,705,329,502,684,340,0
505,614,705,329,502,684,340,614,0
614,705,329,502,684,340,614,574,0
705,329,502,684,340,614,574,632,0
329,502,684,340,614,574,632,673,0
502,684,340,614,574,632,673,326,0
684,340,614,574,632,673,326,528,0
340,614,574,632,673,326,528,738,0
614,574,632,673,326,528,738,371,0
574,632,673,326,528,738,371,531,0
632,673,326,528,738,371,531,613,0
673,326,528,738,371,531,613,486,0
326,528,738,371,531,613,486,561,0
528,738,371,531,613,486,561,264,0
738,371,531,613,486,561,264,503,0
371,531,613,486,561,264,503,722,0
531,613,486,561,264,503,722,411,0
613,486,561,264,503,722,411,555,0
486,561,264,503,722,411,555,623,0
561,264,503,722,411,555,623,518,0
264,503,722,411,555,623,518,624,0
503,722,411,555,623,518,624,277,0
722,411,555,623,518,624,277,494,0
411,555,623,518,624,277,494,730,0
555,623,518,624,277,494,730,457,0
623,518,624,277,494,730,457,586,0
518,624,277,494,730,457,586,802,0
624,277,494,730,457,586,802,653,0
277,494,730,457,586,802,653,679,0
494,730,457,586,802,653,679,290,0
730,457,586,802,653,679,290,536,0
457,586,802,653,679,290,536,802,0
586,802,653,679,290,536,802,494,0
802,653,679,290,536,802,494,625,0
653,679,290,536,802,494,625,816,0
679,290,536,802,494,625,816,634,0
290,536,802,494,625,816,634,642,0
536,802,494,625,816,634,642,280,0
802,494,625,816,634,642,280,584,0
494,625,816,634,642,280,584,958,0
625,816,634,642,280,584,958,476,0
816,634,642,280,584,958,476,723,0
634,642,280,584,958,476,723,778,0
642,280,584,958,476,723,778,615,0
280,584,958,476,723,778,615,724,0
584,958,476,723,778,615,724,292,0
958,476,723,778,615,724,292,563,0
476,723,778,615,724,292,563,909,0
723,778,615,724,292,563,909,506,0
778,615,724,292,563,909,506,751,0
615,724,292,563,909,506,751,782,0
724,292,563,909,506,751,782,648,0
292,563,909,506,751,782,648,737,0
563,909,506,751,782,648,737,314,0
909,506,751,782,648,737,314,579,0
506,751,782,648,737,314,579,928,0
751,782,648,737,314,579,928,476,0
782,648,737,314,579,928,476,762,0
648,737,314,579,928,476,762,798,0
737,314,579,928,476,762,798,713,0
314,579,928,476,762,798,713,779,0
579,928,476,762,798,713,779,328,0
928,476,762,798,713,779,328,563,0
476,762,798,713,779,328,563,871,0
762,798,713,779,328,563,871,440,0
798,713,779,328,563,871,440,766,0
713,779,328,563,871,440,766,661,0
779,328,563,871,440,766,661,647,0
328,563,871,440,766,661,647,808,0
563,871,440,766,661,647,808,320,0
871,440,766,661,647,808,320,497,0
440,766,661,647,808,320,497,832,0
766,661,647,808,320,497,832,368,0
661,647,808,320,497,832,368,764,0
647,808,320,497,832,368,764,683,0
808,320,497,832,368,764,683,706,0
320,497,832,368,764,683,706,845,0
497,832,368,764,683,706,845,337,0
832,368,764,683,706,845,337,432,0
368,764,683,706,845,337,432,668,0
764,683,706,845,337,432,668,400,0
683,706,845,337,432,668,400,678,0
706,845,337,432,668,400,678,672,0
845,337,432,668,400,678,672,707,0
337,432,668,400,678,672,707,796,0
432,668,400,678,672,707,796,333,0
668,400,678,672,707,796,333,457,0
400,678,672,707,796,333,457,743,0
678,672,707,796,333,457,743,347,0
672,707,796,333,457,743,347,632,0
707,796,333,457,743,347,632,679,0
796,333,457,743,347,632,679,704,0
333,457,743,347,632,679,704,779,0
457,743,347,632,679,704,779,330,0
743,347,632,679,704,779,330,445,0
347,632,679,704,779,330,445,701,0
632,679,704,779,330,445,701,351,0
679,704,779,330,445,701,351,641,0
704,779,330,445,701,351,641,651,0
779,330,445,701,351,641,651,701,0
330,445,701,351,641,651,701,743,0
445,701,351,641,651,701,743,351,0
701,351,641,651,701,743,351,444,0
351,641,651,701,743,351,444,743,0
641,651,701,743,351,444,743,376,0
651,701,743,351,444,743,376,671,0
701,743,351,444,743,376,671,633,0
743,351,444,743,376,671,633,687,0
351,444,743,376,671,633,687,675,0
444,743,376,671,633,687,675,364,0
743,376,671,633,687,675,364,483,0
376,671,633,687,675,364,483,764,0
671,633,687,675,364,483,764,500,0
633,687,675,364,483,764,500,614,0
687,675,364,483,764,500,614,609,0
675,364,483,764,500,614,609,628,0
364,483,764,500,614,609,628,640,0
483,764,500,614,609,628,640,360,0
764,500,614,609,628,640,360,571,0
500,614,609,628,640,360,571,916,0
614,609,628,640,360,571,916,504,0
609,628,640,360,571,916,504,654,0
628,640,360,571,916,504,654,622,0
640,360,571,916,504,654,622,648,0
360,571,916,504,654,622,648,643,0
571,916,504,654,622,648,643,376,0
916,504,654,622,648,643,376,555,0
504,654,622,648,643,376,555,893,0
654,622,648,643,376,555,893,524,0
622,648,643,376,555,893,524,676,0
648,643,376,555,893,524,676,602,0
643,376,555,893,524,676,602,671,0
376,555,893,524,676,602,671,709,0
555,893,524,676,602,671,709,391,0
893,524,676,602,671,709,391,539,0
524,676,602,671,709,391,539,873,0
676,602,671,709,391,539,873,581,0
602,671,709,391,539,873,581,613,0
671,709,391,539,873,581,613,560,0
709,391,539,873,581,613,560,595,0
391,539,873,581,613,560,595,637,0
539,873,581,613,560,595,637,366,0
873,581,613,560,595,637,366,621,0
581,613,560,595,637,366,621,998,0
613,560,595,637,366,621,998,592,0
560,595,637,366,621,998,592,532,0
595,637,366,621,998,592,532,570,0
637,366,621,998,592,532,570,586,0
366,621,998,592,532,570,586,621,0
621,998,592,532,570,586,621,407,0
998,592,532,570,586,621,407,700,0
592,532,570,586,621,407,700,1023,0
532,570,586,621,407,700,1023,523,0
570,586,621,407,700,1023,523,560,0
586,621,407,700,1023,523,560,626,0
621,407,700,1023,523,560,626,601,0
407,700,1023,523,560,626,601,627,0
700,1023,523,560,626,601,627,396,0
1023,523,560,626,601,627,396,650,0
523,560,626,601,627,396,650,938,0
560,626,601,627,396,650,938,500,0
626,601,627,396,650,938,500,537,0
601,627,396,650,938,500,537,662,0
627,396,650,938,500,537,662,639,0
396,650,938,500,537,662,639,672,0
650,938,500,537,662,639,672,391,0
938,500,537,662,639,672,391,656,0
500,537,662,639,672,391,656,899,0
537,662,639,672,391,656,899,514,0
662,639,672,391,656,899,514,512,0
639,672,391,656,899,514,512,748,0
672,391,656,899,514,512,748,601,0
391,656,899,514,512,748,601,604,0
656,899,514,512,748,601,604,375,0
899,514,512,748,601,604,375,700,0
514,512,748,601,604,375,700,951,0
512,748,601,604,375,700,951,473,0
748,601,604,375,700,951,473,561,0
601,604,375,700,951,473,561,768,0
604,375,700,951,473,561,768,602,0
375,700,951,473,561,768,602,629,0
700,951,473,561,768,602,629,371,0
951,473,561,768,602,629,371,635,0
473,561,768,602,629,371,635,865,0
561,768,602,629,371,635,865,445,0
768,602,629,371,635,865,445,589,0
602,629,371,635,865,445,589,773,0
629,371,635,865,445,589,773,598,0
371,635,865,445,589,773,598,699,0
635,865,445,589,773,598,699,313,0
865,445,589,773,598,699,313,512,0
445,589,773,598,699,313,512,761,0
589,773,598,699,313,512,761,418,0
773,598,699,313,512,761,418,579,0
598,699,313,512,761,418,579,726,0
699,313,512,761,418,579,726,594,0
313,512,761,418,579,726,594,768,0
512,761,418,579,726,594,768,304,0
761,418,579,726,594,768,304,503,0
418,579,726,594,768,304,503,704,0
579,726,594,768,304,503,704,485,0
726,594,768,304,503,704,485,561,0
594,768,304,503,704,485,561,704,0
768,304,503,704,485,561,704,521,0
304,503,704,485,561,704,521,695,0
503,704,485,561,704,521,695,294,0
704,485,561,704,521,695,294,529,0
485,561,704,521,695,294,529,836,0
561,704,521,695,294,529,836,442,0
704,521,695,294,529,836,442,521,0
521,695,294,529,836,442,521,663,0
695,294,529,836,442,521,663,555,0
294,529,836,442,521,663,555,725,0
529,836,442,521,663,555,725,303,0
836,442,521,663,555,725,303,482,0
442,521,663,555,725,303,482,800,0
521,663,555,725,303,482,800,462,0
663,555,725,303,482,800,462,506,0
555,725,303,482,800,462,506,677,0
725,303,482,800,462,506,677,611,0
303,482,800,462,506,677,611,778,0
482,800,462,506,677,611,778,344,0
800,462,506,677,611,778,344,476,0
462,506,677,611,778,344,476,726,0
506,677,611,778,344,476,726,461,0
677,611,778,344,476,726,461,473,0
611,778,344,476,726,461,473,681,0
778,344,476,726,461,473,681,586,0
344,476,726,461,473,681,586,691,0
476,726,461,473,681,586,691,334,0
726,461,473,681,586,691,334,492,0
461,473,681,586,691,334,492,788,0
473,681,586,691,334,492,788,469,0
681,586,691,334,492,788,469,467,0
586,691,334,492,788,469,467,683,0
691,334,492,788,469,467,683,590,0
334,492,788,469,467,683,590,647,0
492,788,469,467,683,590,647,354,0
788,469,467,683,590,647,354,572,0
469,467,683,590,647,354,572,890,0
467,683,590,647,354,572,890,460,0
683,590,647,354,572,890,460,450,0
590,647,354,572,890,460,450,658,0
647,354,572,890,460,450,658,630,0
354,572,890,460,450,658,630,799,0
572,890,460,450,658,630,799,400,0
890,460,450,658,630,799,400,581,0
460,450,658,630,799,400,581,810,0
450,658,630,799,400,581,810,455,0
658,630,799,400,581,810,455,501,0
630,799,400,581,810,455,501,603,0
799,400,581,810,455,501,603,574,0
400,581,810,455,501,603,574,777,0
581,810,455,501,603,574,777,385,0
810,455,501,603,574,777,385,561,0
455,501,603,574,777,385,561,794,0
501,603,574,777,385,561,794,467,0
603,574,777,385,561,794,467,611,0
574,777,385,561,794,467,611,602,0
777,385,561,794,467,611,602,497,0
385,561,794,467,611,602,497,707,0
561,794,467,611,602,497,707,352,0
794,467,611,602,497,707,352,612,0
467,611,602,497,707,352,612,881,0
611,602,497,707,352,612,881,493,0
602,497,707,352,612,881,493,688,0
497,707,352,612,881,493,688,595,0
707,352,612,881,493,688,595,518,0
352,612,881,493,688,595,518,776,0
612,881,493,688,595,518,776,368,0
881,493,688,595,518,776,368,632,0
493,688,595,518,776,368,632,885,0
688,595,518,776,368,632,885,492,0
595,518,776,368,632,885,492,692,0
518,776,368,632,885,492,692,603,0
776,368,632,885,492,692,603,454,0
368,632,885,492,692,603,454,774,0
632,885,492,692,603,454,774,352,0
885,492,692,603,454,774,352,573,0
492,692,603,454,774,352,573,829,0
692,603,454,774,352,573,829,445,0
603,454,774,352,573,829,445,690,0
454,774,352,573,829,445,690,600,0
774,352,573,829,445,690,600,421,0
352,573,829,445,690,600,421,628,0
573,829,445,690,600,421,628,283,0
829,445,690,600,421,628,283,520,0
445,690,600,421,628,283,520,808,0
690,600,421,628,283,520,808,459,0
600,421,628,283,520,808,459,664,0
421,628,283,520,808,459,664,575,0
628,283,520,808,459,664,575,451,0
283,520,808,459,664,575,451,645,0
520,808,459,664,575,451,645,283,0
808,459,664,575,451,645,283,546,0
459,664,575,451,645,283,546,849,0
664,575,451,645,283,546,849,402,0
575,451,645,283,546,849,402,536,0
451,645,283,546,849,402,536,520,0
645,283,546,849,402,536,520,442,0
283,546,849,402,536,520,442,682,0
546,849,402,536,520,442,682,293,0
849,402,536,520,442,682,293,497,0
402,536,520,442,682,293,497,808,0
536,520,442,682,293,497,808,371,0
520,442,682,293,497,808,371,459,0
442,682,293,497,808,371,459,517,0
682,293,497,808,371,459,517,481,0
293,497,808,371,459,517,481,657,0
497,808,371,459,517,481,657,311,0
808,371,459,517,481,657,311,465,0
371,459,517,481,657,311,465,754,0
459,517,481,657,311,465,754,366,0
517,481,657,311,465,754,366,443,0
481,657,311,465,754,366,443,528,0
657,311,465,754,366,443,528,500,0
311,465,754,366,443,528,500,611,0
465,754,366,443,528,500,611,334,0
754,366,443,528,500,611,334,500,0
366,443,528,500,611,334,500,818,0
443,528,500,611,334,500,818,388,0
528,500,611,334,500,818,388,476,0
500,611,334,500,818,388,476,576,0
611,334,500,818,388,476,576,517,0
334,500,818,388,476,576,517,662,0
500,818,388,476,576,517,662,377,0
818,388,476,576,517,662,377,538,0
388,476,576,517,662,377,538,876,0
476,576,517,662,377,538,876,377,0
576,517,662,377,538,876,377,502,0
517,662,377,538,876,377,502,596,0
662,377,538,876,377,502,596,492,0
377,538,876,377,502,596,492,648,0
538,876,377,502,596,492,648,386,0
876,377,502,596,492,648,386,524,0
377,502,596,492,648,386,524,846,0
502,596,492,648,386,524,846,373,0
596,492,648,386,524,846,373,538,0
492,648,386,524,846,373,538,667,0
648,386,524,846,373,538,667,534,0
386,524,846,373,538,667,534,634,0
524,846,373,538,667,534,634,371,0
846,373,538,667,534,634,371,499,0
373,538,667,534,634,371,499,813,0
538,667,534,634,371,499,813,409,0
667,534,634,371,499,813,409,518,0
534,634,371,499,813,409,518,644,0
634,371,499,813,409,518,644,503,0
371,499,813,409,518,644,503,659,0
499,813,409,518,644,503,659,352,0
813,409,518,644,503,659,352,518,0
409,518,644,503,659,352,518,850,0
518,644,503,659,352,518,850,408,0
644,503,659,352,518,850,408,526,0
503,659,352,518,850,408,526,612,0
659,352,518,850,408,526,612,571,0
352,518,850,408,526,612,571,677,0
518,850,408,526,612,571,677,353,0
850,408,526,612,571,677,353,506,0
408,526,612,571,677,353,506,855,0
526,612,571,677,353,506,855,373,0
612,571,677,353,506,855,373,558,0
571,677,353,506,855,373,558,594,0
677,353,506,855,373,558,594,640,0
353,506,855,373,558,594,640,740,0
506,855,373,558,594,640,740,358,0
855,373,558,594,640,740,358,441,0
373,558,594,640,740,358,441,798,0
558,594,640,740,358,441,798,369,0
594,640,740,358,441,798,369,612,0
640,740,358,441,798,369,612,576,0
740,358,441,798,369,612,576,633,0
358,441,798,369,612,576,633,746,0
441,798,369,612,576,633,746,352,0
798,369,612,576,633,746,352,446,0
369,612,576,633,746,352,446,799,0
612,576,633,746,352,446,799,433,0
576,633,746,352,446,799,433,606,0
633,746,352,446,799,433,606,528,0
746,352,446,799,433,606,528,597,0
352,446,799,433,606,528,597,707,0
446,799,433,606,528,597,707,374,0
799,433,606,528,597,707,374,547,0
433,606,528,597,707,374,547,900,0
606,528,597,707,374,547,900,413,0
528,597,707,374,547,900,413,602,0
597,707,374,547,900,413,602,642,0
707,374,547,900,413,602,642,638,0
374,547,900,413,602,642,638,648,0
547,900,413,602,642,638,648,382,0
900,413,602,642,638,648,382,540,0
413,602,642,638,648,382,540,917,0
602,642,638,648,382,540,917,396,0
642,638,648,382,540,917,396,590,0
638,648,382,540,917,396,590,618,0
648,382,540,917,396,590,618,597,0
382,540,917,396,590,618,597,630,0
540,917,396,590,618,597,630,366,0
917,396,590,618,597,630,366,485,0
396,590,618,597,630,366,485,809,0
590,618,597,630,366,485,809,387,0
618,597,630,366,485,809,387,552,0
597,630,366,485,809,387,552,593,0
630,366,485,809,387,552,593,502,0
366,485,809,387,552,593,502,533,0
485,809,387,552,593,502,533,326,0
809,387,552,593,502,533,326,486,0
387,552,593,502,533,326,486,760,0
552,593,502,533,326,486,760,438,0
593,502,533,326,486,760,438,494,0
502,533,326,486,760,438,494,616,0
533,326,486,760,438,494,616,525,0
326,486,760,438,494,616,525,608,0
486,760,438,494,616,525,608,383,0
760,438,494,616,525,608,383,558,0
438,494,616,525,608,383,558,760,0
494,616,525,608,383,558,760,401,0
616,525,608,383,558,760,401,497,0
525,608,383,558,760,401,497,677,0
608,383,558,760,401,497,677,535,0
383,558,760,401,497,677,535,645,0
558,760,401,497,677,535,645,389,0
760,401,497,677,535,645,389,488,0
401,497,677,535,645,389,488,669,0
497,677,535,645,389,488,669,376,0
677,535,645,389,488,669,376,512,0
535,645,389,488,669,376,512,568,0
645,389,488,669,376,512,568,466,0
389,488,669,376,512,568,466,657,0
488,669,376,512,568,466,657,374,0
669,376,512,568,466,657,374,463,0
376,512,568,466,657,374,463,594,0
512,568,466,657,374,463,594,389,0
568,466,657,374,463,594,389,544,0
466,657,374,463,594,389,544,587,0
657,374,463,594,389,544,587,457,0
374,463,594,389,544,587,457,665,0
463,594,389,544,587,457,665,383,0
594,389,544,587,457,665,383,541,0
389,544,587,457,665,383,541,702,0
544,587,457,665,383,541,702,424,0
587,457,665,383,541,702,424,544,0
457,665,383,541,702,424,544,595,0
665,383,541,702,424,544,595,457,0
383,541,702,424,544,595,457,680,0
541,702,424,544,595,457,680,408,0
702,424,544,595,457,680,408,597,0
424,544,595,457,680,408,597,803,0
544,595,457,680,408,597,803,356,0
595,457,680,408,597,803,356,551,0
457,680,408,597,803,356,551,571,0
680,408,597,803,356,551,571,453,0
408,597,803,356,551,571,453,617,0
597,803,356,551,571,453,617,353,0
803,356,551,571,453,617,353,512,0
356,551,571,453,617,353,512,805,0
551,571,453,617,353,512,805,321,0
571,453,617,353,512,805,321,523,0
453,617,353,512,805,321,523,462,0
617,353,512,805,321,523,462,446,0
353,512,805,321,523,462,446,618,0
512,805,321,523,462,446,618,314,0
805,321,523,462,446,618,314,479,0
321,523,462,446,618,314,479,751,0
523,462,446,618,314,479,751,390,0
462,446,618,314,479,751,390,576,0
446,618,314,479,751,390,576,486,0
618,314,479,751,390,576,486,530,0
314,479,751,390,576,486,530,688,0
479,751,390,576,486,530,688,342,0
751,390,576,486,530,688,342,564,0
390,576,486,530,688,342,564,844,0
576,486,530,688,342,564,844,406,0
486,530,688,342,564,844,406,552,0
530,688,342,564,844,406,552,450,0
688,342,564,844,406,552,450,564,0
342,564,844,406,552,450,564,675,0
564,844,406,552,450,564,675,317,0
844,406,552,450,564,675,317,489,0
406,552,450,564,675,317,489,774,0
552,450,564,675,317,489,774,366,0
450,564,675,317,489,774,366,522,0
564,675,317,489,774,366,522,433,0
675,317,489,774,366,522,433,541,0
317,489,774,366,522,433,541,635,0
489,774,366,522,433,541,635,279,0
774,366,522,433,541,635,279,415,0
366,522,433,541,635,279,415,657,0
522,433,541,635,279,415,657,447,0
433,541,635,279,415,657,447,549,0
541,635,279,415,657,447,549,492,0
635,279,415,657,447,549,492,550,0
279,415,657,447,549,492,550,620,0
415,657,447,549,492,550,620,300,0
657,447,549,492,550,620,300,440,0
447,549,492,550,620,300,440,678,0
549,492,550,620,300,440,678,480,0
492,550,620,300,440,678,480,599,0
550,620,300,440,678,480,599,547,0
620,300,440,678,480,599,547,571,0
300,440,678,480,599,547,571,656,0
440,678,480,599,547,571,656,327,0
678,480,599,547,571,656,327,523,0
480,599,547,571,656,327,523,820,0
599,547,571,656,327,523,820,441,0
547,571,656,327,523,820,441,594,0
571,656,327,523,820,441,594,524,0
656,327,523,820,441,594,524,489,0
327,523,820,441,594,524,489,601,0
523,820,441,594,524,489,601,302,0
820,441,594,524,489,601,302,458,0
441,594,524,489,601,302,458,779,0
594,524,489,601,302,458,779,408,0
524,489,601,302,458,779,408,631,0
489,601,302,458,779,408,631,540,0
601,302,458,779,408,631,540,520,0
302,458,779,408,631,540,520,678,0
458,779,408,631,540,520,678,315,0
779,408,631,540,520,678,315,448,0
408,631,540,520,678,315,448,755,0
631,540,520,678,315,448,755,423,0
540,520,678,315,448,755,423,684,0
520,678,315,448,755,423,684,542,0
678,315,448,755,423,684,542,543,0
315,448,755,423,684,542,543,691,0
448,755,423,684,542,543,691,326,0
755,423,684,542,543,691,326,467,0
423,684,542,543,691,326,467,760,0
684,542,543,691,326,467,760,348,0
542,543,691,326,467,760,348,642,0
543,691,326,467,760,348,642,480,0
691,326,467,760,348,642,480,503,0
326,467,760,348,642,480,503,656,0
467,760,348,642,480,503,656,289,0
760,348,642,480,503,656,289,457,0
348,642,480,503,656,289,457,749,0
642,480,503,656,289,457,749,327,0
480,503,656,289,457,749,327,586,0
503,656,289,457,749,327,586,396,0
656,289,457,749,327,586,396,470,0
289,457,749,327,586,396,470,633,0
457,749,327,586,396,470,633,282,0
749,327,586,396,470,633,282,373,0
327,586,396,470,633,282,373,646,0
586,396,470,633,282,373,646,322,0
396,470,633,282,373,646,322,556,0
470,633,282,373,646,322,556,416,0
633,282,373,646,322,556,416,470,0
282,373,646,322,556,416,470,605,0
373,646,322,556,416,470,605,284,0
646,322,556,416,470,605,284,343,0
322,556,416,470,605,284,343,596,0
556,416,470,605,284,343,596,342,0
416,470,605,284,343,596,342,572,0
470,605,284,343,596,342,572,396,0
605,284,343,596,342,572,396,407,0
284,343,596,342,572,396,407,549,0
343,596,342,572,396,407,549,258,0
596,342,572,396,407,549,258,409,0
342,572,396,407,549,258,409,651,0
572,396,407,549,258,409,651,344,0
396,407,549,258,409,651,344,543,0
407,549,258,409,651,344,543,378,0
549,258,409,651,344,543,378,379,0
258,409,651,344,543,378,379,529,0
409,651,344,543,378,379,529,234,0
651,344,543,378,379,529,234,407,0
344,543,378,379,529,234,407,702,0
543,378,379,529,234,407,702,329,0
378,379,529,234,407,702,329,591,0
379,529,234,407,702,329,591,424,0
529,234,407,702,329,591,424,403,0
234,407,702,329,591,424,403,608,0
407,702,329,591,424,403,608,253,0
702,329,591,424,403,608,253,393,0
329,591,424,403,608,253,393,652,0
591,424,403,608,253,393,652,298,0
424,403,608,253,393,652,298,591,0
403,608,253,393,652,298,591,450,0
608,253,393,652,298,591,450,413,0
253,393,652,298,591,450,413,602,0
393,652,298,591,450,413,602,220,0
652,298,591,450,413,602,220,364,0
298,591,450,413,602,220,364,617,0
591,450,413,602,220,364,617,314,0
450,413,602,220,364,617,314,604,0
413,602,220,364,617,314,604,488,0
602,220,364,617,314,604,488,458,0
220,364,617,314,604,488,458,613,0
364,617,314,604,488,458,613,214,0
617,314,604,488,458,613,214,404,0
314,604,488,458,613,214,404,722,0
604,488,458,613,214,404,722,294,0
488,458,613,214,404,722,294,557,0
458,613,214,404,722,294,557,490,0
613,214,404,722,294,557,490,439,0
214,404,722,294,557,490,439,577,0
404,722,294,557,490,439,577,216,0
722,294,557,490,439,577,216,351,0
294,557,490,439,577,216,351,698,0
557,490,439,577,216,351,698,262,0
490,439,577,216,351,698,262,529,0
439,577,216,351,698,262,529,501,0
577,216,351,698,262,529,501,484,0
216,351,698,262,529,501,484,658,0
351,698,262,529,501,484,658,225,0
698,262,529,501,484,658,225,329,0
262,529,501,484,658,225,329,631,0
529,501,484,658,225,329,631,279,0
501,484,658,225,329,631,279,497,0
484,658,225,329,631,279,497,526,0
658,225,329,631,279,497,526,493,0
225,329,631,279,497,526,493,679,0
329,631,279,497,526,493,679,212,0
631,279,497,526,493,679,212,325,0
279,497,526,493,679,212,325,628,0
497,526,493,679,212,325,628,314,0
526,493,679,212,325,628,314,519,0
493,679,212,325,628,314,519,523,0
679,212,325,628,314,519,523,485,0
212,325,628,314,519,523,485,655,0
325,628,314,519,523,485,655,206,0
628,314,519,523,485,655,206,338,0
314,519,523,485,655,206,338,623,0
519,523,485,655,206,338,623,275,0
523,485,655,206,338,623,275,475,0
485,655,206,338,623,275,475,454,0
655,206,338,623,275,475,454,411,0
206,338,623,275,475,454,411,616,0
338,623,275,475,454,411,616,203,0
623,275,475,454,411,616,203,282,0
275,475,454,411,616,203,282,468,0
475,454,411,616,203,282,468,285,0
454,411,616,203,282,468,285,492,0
411,616,203,282,468,285,492,438,0
616,203,282,468,285,492,438,378,0
203,282,468,285,492,438,378,611,0
282,468,285,492,438,378,611,196,0
468,285,492,438,378,611,196,285,0
285,492,438,378,611,196,285,453,0
492,438,378,611,196,285,453,321,0
438,378,611,196,285,453,321,531,0
378,611,196,285,453,321,531,416,0
611,196,285,453,321,531,416,355,0
196,285,453,321,531,416,355,585,0
285,453,321,531,416,355,585,198,0
453,321,531,416,355,585,198,297,0
321,531,416,355,585,198,297,573,0
531,416,355,585,198,297,573,374,0
416,355,585,198,297,573,374,493,0
355,585,198,297,573,374,493,360,0
585,198,297,573,374,493,360,421,0
198,297,573,374,493,360,421,584,0
297,573,374,493,360,421,584,253,0
573,374,493,360,421,584,253,384,0
374,493,360,421,584,253,384,636,0
493,360,421,584,253,384,636,345,0
360,421,584,253,384,636,345,477,0
421,584,253,384,636,345,477,470,0
584,253,384,636,345,477,470,550,0
253,384,636,345,477,470,550,760,0
384,636,345,477,470,550,760,340,0
636,345,477,470,550,760,340,453,0
345,477,470,550,760,340,453,642,0
477,470,550,760,340,453,642,354,0
470,550,760,340,453,642,354,489,0
550,760,340,453,642,354,489,505,0
760,340,453,642,354,489,505,685,0
340,453,642,354,489,505,685,861,0
453,642,354,489,505,685,861,360,0
642,354,489,505,685,861,360,487,0
354,489,505,685,861,360,487,715,0
489,505,685,861,360,487,715,384,0
505,685,861,360,487,715,384,509,0
685,861,360,487,715,384,509,541,0
861,360,487,715,384,509,541,723,0
360,487,715,384,509,541,723,863,0
487,715,384,509,541,723,863,382,0
715,384,509,541,723,863,382,545,0
384,509,541,723,863,382,545,785,0
509,541,723,863,382,545,785,364,0
541,723,863,382,545,785,364,590,0
723,863,382,545,785,364,590,609,0
863,382,545,785,364,590,609,761,0
382,545,785,364,590,609,761,885,0
545,785,364,590,609,761,885,392,0
785,364,590,609,761,885,392,535,0
364,590,609,761,885,392,535,736,0
590,609,761,885,392,535,736,299,0
609,761,885,392,535,736,299,588,0
761,885,392,535,736,299,588,617,0
885,392,535,736,299,588,617,791,0
392,535,736,299,588,617,791,935,0
535,736,299,588,617,791,935,377,0
736,299,588,617,791,935,377,474,0
299,588,617,791,935,377,474,672,0
588,617,791,935,377,474,672,317,0
617,791,935,377,474,672,317,596,0
791,935,377,474,672,317,596,559,0
935,377,474,672,317,596,559,714,0
377,474,672,317,596,559,714,815,0
474,672,317,596,559,714,815,318,0
672,317,596,559,714,815,318,431,0
317,596,559,714,815,318,431,681,0
596,559,714,815,318,431,681,319,0
559,714,815,318,431,681,319,602,0
714,815,318,431,681,319,602,529,0
815,318,431,681,319,602,529,622,0
318,431,681,319,602,529,622,790,0
431,681,319,602,529,622,790,329,0
681,319,602,529,622,790,329,407,0
319,602,529,622,790,329,407,600,0
602,529,622,790,329,407,600,288,0
529,622,790,329,407,600,288,615,0
622,790,329,407,600,288,615,501,0
790,329,407,600,288,615,501,656,0
329,407,600,288,615,501,656,861,0
407,600,288,615,501,656,861,324,0
600,288,615,501,656,861,324,312,0
288,615,501,656,861,324,312,470,0
615,501,656,861,324,312,470,312,0
501,656,861,324,312,470,312,496,0
656,861,324,312,470,312,496,453,0
861,324,312,470,312,496,453,605,0
324,312,470,312,496,453,605,865,0
312,470,312,496,453,605,865,327,0
470,312,496,453,605,865,327,352,0
312,496,453,605,865,327,352,495,0
496,453,605,865,327,352,495,375,0
453,605,865,327,352,495,375,498,0
605,865,327,352,495,375,498,433,0
865,327,352,495,375,498,433,528,0
327,352,495,375,498,433,528,783,0
352,495,375,498,433,528,783,323,0
495,375,498,433,528,783,323,455,0
375,498,433,528,783,323,455,635,0
498,433,528,783,323,455,635,359,0
433,528,783,323,455,635,359,494,0
528,783,323,455,635,359,494,404,0
783,323,455,635,359,494,404,519,0
323,455,635,359,494,404,519,793,0
455,635,359,494,404,519,793,310,0
635,359,494,404,519,793,310,442,0
359,494,404,519,793,310,442,620,0
494,404,519,793,310,442,620,403,0
404,519,793,310,442,620,403,528,0
519,793,310,442,620,403,528,496,0
793,310,442,620,403,528,496,558,0
310,442,620,403,528,496,558,815,0
442,620,403,528,496,558,815,301,0
620,403,528,496,558,815,301,466,0
403,528,496,558,815,301,466,699,0
528,496,558,815,301,466,699,410,0
496,558,815,301,466,699,410,469,0
558,815,301,466,699,410,469,531,0
815,301,466,699,410,469,531,566,0
301,466,699,410,469,531,566,769,0
466,699,410,469,531,566,769,292,0
699,410,469,531,566,769,292,494,0
410,469,531,566,769,292,494,726,0
469,531,566,769,292,494,726,447,0
531,566,769,292,494,726,447,478,0
566,769,292,494,726,447,478,503,0
769,292,494,726,447,478,503,618,0
292,494,726,447,478,503,618,740,0
494,726,447,478,503,618,740,299,0
726,447,478,503,618,740,299,551,0
447,478,503,618,740,299,551,772,0
478,503,618,740,299,551,772,404,0
503,618,740,299,551,772,404,475,0
618,740,299,551,772,404,475,498,0
740,299,551,772,404,475,498,599,0
299,551,772,404,475,498,599,716,0
551,772,404,475,498,599,716,303,0
772,404,475,498,599,716,303,470,0
404,475,498,599,716,303,470,694,0
475,498,599,716,303,470,694,406,0
498,599,716,303,470,694,406,517,0
599,716,303,470,694,406,517,567,0
716,303,470,694,406,517,567,648,0
303,470,694,406,517,567,648,721,0
470,694,406,517,567,648,721,314,0
694,406,517,567,648,721,314,462,0
406,517,567,648,721,314,462,680,0
517,567,648,721,314,462,680,373,0
567,648,721,314,462,680,373,508,0
648,721,314,462,680,373,508,503,0
721,314,462,680,373,508,503,624,0
314,462,680,373,508,503,624,686,0
462,680,373,508,503,624,686,298,0
680,373,508,503,624,686,298,439,0
373,508,503,624,686,298,439,647,0
508,503,624,686,298,439,647,351,0
503,624,686,298,439,647,351,501,0
624,686,298,439,647,351,501,469,0
686,298,439,647,351,501,469,587,0
298,439,647,351,501,469,587,715,0
439,647,351,501,469,587,715,293,0
647,351,501,469,587,715,293,420,0
351,501,469,587,715,293,420,650,0
501,469,587,715,293,420,650,289,0
469,587,715,293,420,650,289,562,0
587,715,293,420,650,289,562,551,0
715,293,420,650,289,562,551,611,0
293,420,650,289,562,551,611,758,0
420,650,289,562,551,611,758,283,0
650,289,562,551,611,758,283,363,0
289,562,551,611,758,283,363,622,0
562,551,611,758,283,363,622,280,0
551,611,758,283,363,622,280,573,0
611,758,283,363,622,280,573,542,0
758,283,363,622,280,573,542,607,0
283,363,622,280,573,542,607,800,0
363,622,280,573,542,607,800,268,0
622,280,573,542,607,800,268,377,0
280,573,542,607,800,268,377,633,0
573,542,607,800,268,377,633,298,0
542,607,800,268,377,633,298,588,0
607,800,268,377,633,298,588,475,0
800,268,377,633,298,588,475,591,0
268,377,633,298,588,475,591,805,0
377,633,298,588,475,591,805,268,0
633,298,588,475,591,805,268,416,0
298,588,475,591,805,268,416,660,0
588,475,591,805,268,416,660,329,0
475,591,805,268,416,660,329,589,0
591,805,268,416,660,329,589,523,0
805,268,416,660,329,589,523,613,0
268,416,660,329,589,523,613,829,0
416,660,329,589,523,613,829,277,0
660,329,589,523,613,829,277,428,0
329,589,523,613,829,277,428,691,0
589,523,613,829,277,428,691,363,0
523,613,829,277,428,691,363,631,0
613,829,277,428,691,363,631,558,0
829,277,428,691,363,631,558,586,0
277,428,691,363,631,558,586,782,0
428,691,363,631,558,586,782,274,0
691,363,631,558,586,782,274,418,0
363,631,558,586,782,274,418,663,0
631,558,586,782,274,418,663,361,0
558,586,782,274,418,663,361,576,0
586,782,274,418,663,361,576,479,0
782,274,418,663,361,576,479,502,0
274,418,663,361,576,479,502,713,0
418,663,361,576,479,502,713,272,0
663,361,576,479,502,713,272,419,0
361,576,479,502,713,272,419,657,0
576,479,502,713,272,419,657,390,0
479,502,713,272,419,657,390,572,0
502,713,272,419,657,390,572,554,0
713,272,419,657,390,572,554,519,0
272,419,657,390,572,554,519,660,0
419,657,390,572,554,519,660,260,0
657,390,572,554,519,660,260,493,0
390,572,554,519,660,260,493,729,0
572,554,519,660,260,493,729,406,0
554,519,660,260,493,729,406,529,0
519,660,260,493,729,406,529,592,0
660,260,493,729,406,529,592,478,0
260,493,729,406,529,592,478,597,0
493,729,406,529,592,478,597,267,0
729,406,529,592,478,597,267,498,0
406,529,592,478,597,267,498,772,0
529,592,478,597,267,498,772,394,0
592,478,597,267,498,772,394,535,0
478,597,267,498,772,394,535,615,0
597,267,498,772,394,535,615,431,0
267,498,772,394,535,615,431,509,0
498,772,394,535,615,431,509,297,0
772,394,535,615,431,509,297,499,0
394,535,615,431,509,297,499,727,0
535,615,431,509,297,499,727,385,0
615,431,509,297,499,727,385,522,0
431,509,297,499,727,385,522,599,0
509,297,499,727,385,522,599,527,0
297,499,727,385,522,599,527,669,0
499,727,385,522,599,527,669,338,0
727,385,522,599,527,669,338,506,0
385,522,599,527,669,338,506,728,0
522,599,527,669,338,506,728,435,0
599,527,669,338,506,728,435,532,0
527,669,338,506,728,435,532,600,0
669,338,506,728,435,532,600,560,0
338,506,728,435,532,600,560,683,0
506,728,435,532,600,560,683,338,0
728,435,532,600,560,683,338,524,0
435,532,600,560,683,338,524,776,0
532,600,560,683,338,524,776,410,0
600,560,683,338,524,776,410,540,0
560,683,338,524,776,410,540,547,0
683,338,524,776,410,540,547,540,0
338,524,776,410,540,547,540,700,0
524,776,410,540,547,540,700,341,0
776,410,540,547,540,700,341,461,0
410,540,547,540,700,341,461,733,0
540,547,540,700,341,461,733,401,0
547,540,700,341,461,733,401,556,0
540,700,341,461,733,401,556,511,0
700,341,461,733,401,556,511,541,0
341,461,733,401,556,511,541,735,0
461,733,401,556,511,541,735,323,0
733,401,556,511,541,735,323,410,0
401,556,511,541,735,323,410,657,0
556,511,541,735,323,410,657,391,0
511,541,735,323,410,657,391,548,0
541,735,323,410,657,391,548,438,0
735,323,410,657,391,548,438,539,0
323,410,657,391,548,438,539,752,0
410,657,391,548,438,539,752,290,0
657,391,548,438,539,752,290,385,0
391,548,438,539,752,290,385,628,0
548,438,539,752,290,385,628,451,0
438,539,752,290,385,628,451,532,0
539,752,290,385,628,451,532,440,0
752,290,385,628,451,532,440,425,0
290,385,628,451,532,440,425,609,0
385,628,451,532,440,425,609,294,0
628,451,532,440,425,609,294,512,0
451,532,440,425,609,294,512,800,0
532,440,425,609,294,512,800,421,0
440,425,609,294,512,800,421,544,0
425,609,294,512,800,421,544,419,0
609,294,512,800,421,544,419,428,0
294,512,800,421,544,419,428,629,0
512,800,421,544,419,428,629,281,0
800,421,544,419,428,629,281,509,0
421,544,419,428,629,281,509,754,0
544,419,428,629,281,509,754,419,0
419,428,629,281,509,754,419,577,0
428,629,281,509,754,419,577,417,0
629,281,509,754,419,577,417,432,0
281,509,754,419,577,417,432,701,0
509,754,419,577,417,432,701,308,0
754,419,577,417,432,701,308,498,0
419,577,417,432,701,308,498,693,0
577,417,432,701,308,498,693,407,0
417,432,701,308,498,693,407,553,0
432,701,308,498,693,407,553,403,0
701,308,498,693,407,553,403,439,0
308,498,693,407,553,403,439,699,0
498,693,407,553,403,439,699,337,0
693,407,553,403,439,699,337,520,0
407,553,403,439,699,337,520,712,0
553,403,439,699,337,520,712,406,0
403,439,699,337,520,712,406,515,0
439,699,337,520,712,406,515,383,0
699,337,520,712,406,515,383,400,0
337,520,712,406,515,383,400,653,0
520,712,406,515,383,400,653,338,0
712,406,515,383,400,653,338,549,0
406,515,383,400,653,338,549,757,0
515,383,400,653,338,549,757,313,0
383,400,653,338,549,757,313,498,0
400,653,338,549,757,313,498,364,0
653,338,549,757,313,498,364,476,0
338,549,757,313,498,364,476,645,0
549,757,313,498,364,476,645,314,0
757,313,498,364,476,645,314,428,0
313,498,364,476,645,314,428,569,0
498,364,476,645,314,428,569,310,0
364,476,645,314,428,569,310,480,0
476,645,314,428,569,310,480,388,0
645,314,428,569,310,480,388,418,0
314,428,569,310,480,388,418,584,0
428,569,310,480,388,418,584,314,0
569,310,480,388,418,584,314,396,0
310,480,388,418,584,314,396,546,0
480,388,418,584,314,396,546,343,0
388,418,584,314,396,546,343,423,0
418,584,314,396,546,343,423,352,0
584,314,396,546,343,423,352,455,0
314,396,546,343,423,352,455,523,0
396,546,343,423,352,455,523,314,0
546,343,423,352,455,523,314,451,0
343,423,352,455,523,314,451,649,0
423,352,455,523,314,451,649,378,0
352,455,523,314,451,649,378,454,0
455,523,314,451,649,378,454,397,0
523,314,451,649,378,454,397,443,0
314,451,649,378,454,397,443,475,0
451,649,378,454,397,443,475,287,0
649,378,454,397,443,475,287,446,0
378,454,397,443,475,287,446,702,0
454,397,443,475,287,446,702,373,0
397,443,475,287,446,702,373,497,0
443,475,287,446,702,373,497,440,0
475,287,446,702,373,497,440,497,0
287,446,702,373,497,440,497,546,0
446,702,373,497,440,497,546,272,0
702,373,497,440,497,546,272,414,0
373,497,440,497,546,272,414,664,0
497,440,497,546,272,414,664,395,0
440,497,546,272,414,664,395,568,0
497,546,272,414,664,395,568,563,0
546,272,414,664,395,568,563,569,0
272,414,664,395,568,563,569,692,0
414,664,395,568,563,569,692,254,0
664,395,568,563,569,692,254,407,0
395,568,563,569,692,254,407,660,0
568,563,569,692,254,407,660,399,0
563,569,692,254,407,660,399,558,0
569,692,254,407,660,399,558,594,0
692,254,407,660,399,558,594,602,0
254,407,660,399,558,594,602,727,0
407,660,399,558,594,602,727,284,0
660,399,558,594,602,727,284,416,0
399,558,594,602,727,284,416,696,0
558,594,602,727,284,416,696,369,0
594,602,727,284,416,696,369,559,0
602,727,284,416,696,369,559,632,0
727,284,416,696,369,559,632,603,0
284,416,696,369,559,632,603,708,0
416,696,369,559,632,603,708,274,0
696,369,559,632,603,708,274,380,0
369,559,632,603,708,274,380,645,0
559,632,603,708,274,380,645,336,0
632,603,708,274,380,645,336,542,0
603,708,274,380,645,336,542,627,0
708,274,380,645,336,542,627,640,0
274,380,645,336,542,627,640,714,0
380,645,336,542,627,640,714,277,0
645,336,542,627,640,714,277,380,0
336,542,627,640,714,277,380,587,0
542,627,640,714,277,380,587,354,0
627,640,714,277,380,587,354,515,0
640,714,277,380,587,354,515,644,0
714,277,380,587,354,515,644,617,0
277,380,587,354,515,644,617,728,0
380,587,354,515,644,617,728,293,0
587,354,515,644,617,728,293,384,0
354,515,644,617,728,293,384,574,0
515,644,617,728,293,384,574,399,0
644,617,728,293,384,574,399,457,0
617,728,293,384,574,399,457,638,0
728,293,384,574,399,457,638,496,0
293,384,574,399,457,638,496,581,0
384,574,399,457,638,496,581,295,0
574,399,457,638,496,581,295,542,0
399,457,638,496,581,295,542,768,0
457,638,496,581,295,542,768,430,0
638,496,581,295,542,768,430,548,0
496,581,295,542,768,430,548,673,0
581,295,542,768,430,548,673,465,0
295,542,768,430,548,673,465,516,0
542,768,430,548,673,465,516,312,0
768,430,548,673,465,516,312,534,0
430,548,673,465,516,312,534,731,0
548,673,465,516,312,534,731,435,0
673,465,516,312,534,731,435,592,0
465,516,312,534,731,435,592,675,0
516,312,534,731,435,592,675,455,0
312,534,731,435,592,675,455,629,0
534,731,435,592,675,455,629,306,0
731,435,592,675,455,629,306,533,0
435,592,675,455,629,306,533,724,0
592,675,455,629,306,533,724,491,0
675,455,629,306,533,724,491,648,0
455,629,306,533,724,491,648,665,0
629,306,533,724,491,648,665,399,0
306,533,724,491,648,665,399,619,0
533,724,491,648,665,399,619,300,0
724,491,648,665,399,619,300,574,0
491,648,665,399,619,300,574,821,0
648,665,399,619,300,574,821,495,0
665,399,619,300,574,821,495,664,0
399,619,300,574,821,495,664,670,0
619,300,574,821,495,664,670,444,0
300,574,821,495,664,670,444,642,0
574,821,495,664,670,444,642,329,0
821,495,664,670,444,642,329,590,0
495,664,670,444,642,329,590,910,0
664,670,444,642,329,590,910,456,0
670,444,642,329,590,910,456,684,0
444,642,329,590,910,456,684,609,0
642,329,590,910,456,684,609,463,0
329,590,910,456,684,609,463,674,0
590,910,456,684,609,463,674,330,0
910,456,684,609,463,674,330,461,0
456,684,609,463,674,330,461,794,0
684,609,463,674,330,461,794,431,0
609,463,674,330,461,794,431,665,0
463,674,330,461,794,431,665,583,0
674,330,461,794,431,665,583,538,0
330,461,794,431,665,583,538,725,0
461,794,431,665,583,538,725,333,0
794,431,665,583,538,725,333,473,0
431,665,583,538,725,333,473,824,0
665,583,538,725,333,473,824,496,0
583,538,725,333,473,824,496,689,0
538,725,333,473,824,496,689,614,0
725,333,473,824,496,689,614,537,0
333,473,824,496,689,614,537,637,0
473,824,496,689,614,537,637,329,0
824,496,689,614,537,637,329,497,0
496,689,614,537,637,329,497,917,0
689,614,537,637,329,497,917,477,0
614,537,637,329,497,917,477,639,0
537,637,329,497,917,477,639,612,0
637,329,497,917,477,639,612,602,0
329,497,917,477,639,612,602,744,0
497,917,477,639,612,602,744,371,0
917,477,639,612,602,744,371,536,0
477,639,612,602,744,371,536,904,0
639,612,602,744,371,536,904,454,0
612,602,744,371,536,904,454,675,0
602,744,371,536,904,454,675,618,0
744,371,536,904,454,675,618,598,0
371,536,904,454,675,618,598,683,0
536,904,454,675,618,598,683,342,0
904,454,675,618,598,683,342,509,0
454,675,618,598,683,342,509,808,0
675,618,598,683,342,509,808,468,0
618,598,683,342,509,808,468,647,0
598,683,342,509,808,468,647,640,0
683,342,509,808,468,647,640,604,0
342,509,808,468,647,640,604,664,0
509,808,468,647,640,604,664,335,0
808,468,647,640,604,664,335,513,0
468,647,640,604,664,335,513,839,0
647,640,604,664,335,513,839,455,0
640,604,664,335,513,839,455,634,0
604,664,335,513,839,455,634,616,0
664,335,513,839,455,634,616,565,0
335,513,839,455,634,616,565,656,0
513,839,455,634,616,565,656,315,0
839,455,634,616,565,656,315,504,0
455,634,616,565,656,315,504,834,0
634,616,565,656,315,504,834,398,0
616,565,656,315,504,834,398,579,0
565,656,315,504,834,398,579,569,0
656,315,504,834,398,579,569,554,0
315,504,834,398,579,569,554,653,0
504,834,398,579,569,554,653,311,0
834,398,579,569,554,653,311,475,0
398,579,569,554,653,311,475,728,0
579,569,554,653,311,475,728,374,0
569,554,653,311,475,728,374,589,0
554,653,311,475,728,374,589,591,0
653,311,475,728,374,589,591,485,0
311,475,728,374,589,591,485,522,0
475,728,374,589,591,485,522,274,0
728,374,589,591,485,522,274,396,0
374,589,591,485,522,274,396,656,0
589,591,485,522,274,396,656,368,0
591,485,522,274,396,656,368,512,0
485,522,274,396,656,368,512,526,0
522,274,396,656,368,512,526,457,0
274,396,656,368,512,526,457,474,0
396,656,368,512,526,457,474,267,0
656,368,512,526,457,474,267,426,0
368,512,526,457,474,267,426,709,0
512,526,457,474,267,426,709,340,0
526,457,474,267,426,709,340,543,0
457,474,267,426,709,340,543,469,0
474,267,426,709,340,543,469,460,0
267,426,709,340,543,469,460,493,0
426,709,340,543,469,460,493,284,0
709,340,543,469,460,493,284,426,0
340,543,469,460,493,284,426,723,0
543,469,460,493,284,426,723,321,0
469,460,493,284,426,723,321,499,0
460,493,284,426,723,321,499,434,0
493,284,426,723,321,499,434,485,0
284,426,723,321,499,434,485,530,0
426,723,321,499,434,485,530,263,0
723,321,499,434,485,530,263,395,0
321,499,434,485,530,263,395,659,0
499,434,485,530,263,395,659,298,0
434,485,530,263,395,659,298,490,0
485,530,263,395,659,298,490,459,0
530,263,395,659,298,490,459,497,0
263,395,659,298,490,459,497,497,0
395,659,298,490,459,497,497,265,0
659,298,490,459,497,497,265,374,0
298,490,459,497,497,265,374,647,0
490,459,497,497,265,374,647,297,0
459,497,497,265,374,647,297,451,0
497,497,265,374,647,297,451,445,0
497,265,374,647,297,451,445,496,0
265,374,647,297,451,445,496,518,0
374,647,297,451,445,496,518,247,0
647,297,451,445,496,518,247,369,0
297,451,445,496,518,247,369,689,0
451,445,496,518,247,369,689,329,0
445,496,518,247,369,689,329,469,0
496,518,247,369,689,329,469,467,0
518,247,369,689,329,469,467,557,0
247,369,689,329,469,467,557,626,0
369,689,329,469,467,557,626,285,0
689,329,469,467,557,626,285,397,0
329,469,467,557,626,285,397,696,0
469,467,557,626,285,397,696,336,0
467,557,626,285,397,696,336,457,0
557,626,285,397,696,336,457,448,0
626,285,397,696,336,457,448,522,0
285,397,696,336,457,448,522,595,0
397,696,336,457,448,522,595,261,0
696,336,457,448,522,595,261,383,0
336,457,448,522,595,261,383,612,0
457,448,522,595,261,383,612,362,0
448,522,595,261,383,612,362,477,0
522,595,261,383,612,362,477,510,0
595,261,383,612,362,477,510,448,0
261,383,612,362,477,510,448,526,0
383,612,362,477,510,448,526,239,0
612,362,477,510,448,526,239,392,0
362,477,510,448,526,239,392,628,0
477,510,448,526,239,392,628,384,0
510,448,526,239,392,628,384,482,0
448,526,239,392,628,384,482,449,0
526,239,392,628,384,482,449,427,0
239,392,628,384,482,449,427,556,0
392,628,384,482,449,427,556,245,0
628,384,482,449,427,556,245,438,0
384,482,449,427,556,245,438,728,0
482,449,427,556,245,438,728,357,0
449,427,556,245,438,728,357,531,0
427,556,245,438,728,357,531,417,0
556,245,438,728,357,531,417,446,0
245,438,728,357,531,417,446,580,0
438,728,357,531,417,446,580,250,0
728,357,531,417,446,580,250,418,0
357,531,417,446,580,250,418,676,0
531,417,446,580,250,418,676,318,0
417,446,580,250,418,676,318,492,0
446,580,250,418,676,318,492,396,0
580,250,418,676,318,492,396,353,0
250,418,676,318,492,396,353,519,0
418,676,318,492,396,353,519,202,0
676,318,492,396,353,519,202,354,0
318,492,396,353,519,202,354,607,0
492,396,353,519,202,354,607,308,0
396,353,519,202,354,607,308,469,0
353,519,202,354,607,308,469,437,0
519,202,354,607,308,469,437,386,0
202,354,607,308,469,437,386,533,0
354,607,308,469,437,386,533,225,0
607,308,469,437,386,533,225,382,0
308,469,437,386,533,225,382,666,0
469,437,386,533,225,382,666,272,0
437,386,533,225,382,666,272,479,0
386,533,225,382,666,272,479,358,0
533,225,382,666,272,479,358,393,0
225,382,666,272,479,358,393,523,0
382,666,272,479,358,393,523,231,0
666,272,479,358,393,523,231,378,0
272,479,358,393,523,231,378,658,0
479,358,393,523,231,378,658,262,0
358,393,523,231,378,658,262,469,0
393,523,231,378,658,262,469,405,0
523,231,378,658,262,469,405,386,0
231,378,658,262,469,405,386,520,0
378,658,262,469,405,386,520,219,0
658,262,469,405,386,520,219,322,0
262,469,405,386,520,219,322,526,0
469,405,386,520,219,322,526,266,0
405,386,520,219,322,526,266,408,0
386,520,219,322,526,266,408,399,0
520,219,322,526,266,408,399,347,0
219,322,526,266,408,399,347,465,0
322,526,266,408,399,347,465,211,0
526,266,408,399,347,465,211,309,0
266,408,399,347,465,211,309,497,0
408,399,347,465,211,309,497,333,0
399,347,465,211,309,497,333,410,0
347,465,211,309,497,333,410,417,0
465,211,309,497,333,410,417,353,0
211,309,497,333,410,417,353,460,0
309,497,333,410,417,353,460,290,0
497,333,410,417,353,460,290,410,0
333,410,417,353,460,290,410,624,0
410,417,353,460,290,410,624,342,0
417,353,460,290,410,624,342,404,0
353,460,290,410,624,342,404,401,0
460,290,410,624,342,404,401,300,0
290,410,624,342,404,401,300,433,0
410,624,342,404,401,300,433,283,0
624,342,404,401,300,433,283,408,0
342,404,401,300,433,283,408,599,0
404,401,300,433,283,408,599,340,0
401,300,433,283,408,599,340,440,0
300,433,283,408,599,340,440,444,0
433,283,408,599,340,440,444,374,0
283,408,599,340,440,444,374,533,0
408,599,340,440,444,374,533,295,0
599,340,440,444,374,533,295,399,0
340,440,444,374,533,295,399,567,0
440,444,374,533,295,399,567,336,0
444,374,533,295,399,567,336,455,0
374,533,295,399,567,336,455,419,0
533,295,399,567,336,455,419,409,0
295,399,567,336,455,419,409,542,0
399,567,336,455,419,409,542,316,0
567,336,455,419,409,542,316,437,0
336,455,419,409,542,316,437,601,0
455,419,409,542,316,437,601,336,0
419,409,542,316,437,601,336,461,0
409,542,316,437,601,336,461,408,0
542,316,437,601,336,461,408,419,0
316,437,601,336,461,408,419,561,0
437,601,336,461,408,419,561,318,0
601,336,461,408,419,561,318,444,0
336,461,408,419,561,318,444,600,0
461,408,419,561,318,444,600,306,0
408,419,561,318,444,600,306,493,0
419,561,318,444,600,306,493,445,0
561,318,444,600,306,493,445,431,0
318,444,600,306,493,445,431,546,0
444,600,306,493,445,431,546,249,0
600,306,493,445,431,546,249,363,0
306,493,445,431,546,249,363,532,0
493,445,431,546,249,363,532,286,0
445,431,546,249,363,532,286,503,0
431,546,249,363,532,286,503,463,0
546,249,363,532,286,503,463,480,0
249,363,532,286,503,463,480,604,0
363,532,286,503,463,480,604,233,0
532,286,503,463,480,604,233,331,0
286,503,463,480,604,233,331,476,0
503,463,480,604,233,331,476,295,0
463,480,604,233,331,476,295,439,0
480,604,233,331,476,295,439,434,0
604,233,331,476,295,439,434,498,0
233,331,476,295,439,434,498,609,0
331,476,295,439,434,498,609,241,0
476,295,439,434,498,609,241,347,0
295,439,434,498,609,241,347,507,0
439,434,498,609,241,347,507,282,0
434,498,609,241,347,507,282,439,0
498,609,241,347,507,282,439,433,0
609,241,347,507,282,439,433,451,0
241,347,507,282,439,433,451,569,0
347,507,282,439,433,451,569,213,0
507,282,439,433,451,569,213,308,0
282,439,433,451,569,213,308,485,0
439,433,451,569,213,308,485,266,0
433,451,569,213,308,485,266,435,0
451,569,213,308,485,266,435,447,0
569,213,308,485,266,435,447,448,0
213,308,485,266,435,447,448,574,0
308,485,266,435,447,448,574,220,0
485,266,435,447,448,574,220,286,0
266,435,447,448,574,220,286,468,0
435,447,448,574,220,286,468,245,0
447,448,574,220,286,468,245,409,0
448,574,220,286,468,245,409,411,0
574,220,286,468,245,409,411,424,0
220,286,468,245,409,411,424,546,0
286,468,245,409,411,424,546,233,0
468,245,409,411,424,546,233,310,0
245,409,411,424,546,233,310,471,0
409,411,424,546,233,310,471,274,0
411,424,546,233,310,471,274,408,0
424,546,233,310,471,274,408,390,0
546,233,310,471,274,408,390,387,0
233,310,471,274,408,390,387,499,0
310,471,274,408,390,387,499,248,0
471,274,408,390,387,499,248,309,0
274,408,390,387,499,248,309,460,0
408,390,387,499,248,309,460,290,0
390,387,499,248,309,460,290,433,0
387,499,248,309,460,290,433,404,0
499,248,309,460,290,433,404,298,0
248,309,460,290,433,404,298,396,0
309,460,290,433,404,298,396,233,0
460,290,433,404,298,396,233,309,0
290,433,404,298,396,233,309,458,0
433,404,298,396,233,309,458,308,0
404,298,396,233,309,458,308,438,0
298,396,233,309,458,308,438,440,0
396,233,309,458,308,438,440,349,0
233,309,458,308,438,440,349,559,0
309,458,308,438,440,349,559,253,0
458,308,438,440,349,559,253,314,0
308,438,440,349,559,253,314,494,0
438,440,349,559,253,314,494,338,0
440,349,559,253,314,494,338,439,0
349,559,253,314,494,338,439,446,0
559,253,314,494,338,439,446,347,0
253,314,494,338,439,446,347,568,0
314,494,338,439,446,347,568,262,0
494,338,439,446,347,568,262,329,0
338,439,446,347,568,262,329,504,0
439,446,347,568,262,329,504,354,0
446,347,568,262,329,504,354,472,0
347,568,262,329,504,354,472,462,0
568,262,329,504,354,472,462,343,0
262,329,504,354,472,462,343,565,0
329,504,354,472,462,343,565,257,0
504,354,472,462,343,565,257,330,0
354,472,462,343,565,257,330,540,0
472,462,343,565,257,330,540,336,0
462,343,565,257,330,540,336,463,0
343,565,257,330,540,336,463,502,0
565,257,330,540,336,463,502,339,0
257,330,540,336,463,502,339,575,0
330,540,336,463,502,339,575,243,0
540,336,463,502,339,575,243,337,0
336,463,502,339,575,243,337,591,0
463,502,339,575,243,337,591,320,0
502,339,575,243,337,591,320,427,0
339,575,243,337,591,320,427,534,0
575,243,337,591,320,427,534,382,0
243,337,591,320,427,534,382,574,0
337,591,320,427,534,382,574,242,0
591,320,427,534,382,574,242,335,0
320,427,534,382,574,242,335,612,0
427,534,382,574,242,335,612,312,0
534,382,574,242,335,612,312,406,0
382,574,242,335,612,312,406,557,0
574,242,335,612,312,406,557,456,0
242,335,612,312,406,557,456,517,0
335,612,312,406,557,456,517,247,0
612,312,406,557,456,517,247,312,0
312,406,557,456,517,247,312,564,0
406,557,456,517,247,312,564,293,0
557,456,517,247,312,564,293,435,0
456,517,247,312,564,293,435,564,0
517,247,312,564,293,435,564,497,0
247,312,564,293,435,564,497,543,0
312,564,293,435,564,497,543,258,0
564,293,435,564,497,543,258,332,0
293,435,564,497,543,258,332,581,0
435,564,497,543,258,332,581,277,0
564,497,543,258,332,581,277,420,0
497,543,258,332,581,277,420,545,0
543,258,332,581,277,420,545,501,0
258,332,581,277,420,545,501,612,0
332,581,277,420,545,501,612,259,0
581,277,420,545,501,612,259,335,0
277,420,545,501,612,259,335,596,0
420,545,501,612,259,335,596,266,0
545,501,612,259,335,596,266,480,0
501,612,259,335,596,266,480,532,0
612,259,335,596,266,480,532,507,0
259,335,596,266,480,532,507,631,0
335,596,266,480,532,507,631,271,0
596,266,480,532,507,631,271,336,0
266,480,532,507,631,271,336,563,0
480,532,507,631,271,336,563,320,0
532,507,631,271,336,563,320,555,0
507,631,271,336,563,320,555,517,0
631,271,336,563,320,555,517,528,0
271,336,563,320,555,517,528,732,0
336,563,320,555,517,528,732,299,0
563,320,555,517,528,732,299,366,0
320,555,517,528,732,299,366,563,0
555,517,528,732,299,366,563,301,0
517,528,732,299,366,563,301,580,0
528,732,299,366,563,301,580,535,0
732,299,366,563,301,580,535,453,0
299,366,563,301,580,535,453,653,0
366,563,301,580,535,453,653,271,0
563,301,580,535,453,653,271,368,0
301,580,535,453,653,271,368,564,0
580,535,453,653,271,368,564,312,0
535,453,653,271,368,564,312,600,0
453,653,271,368,564,312,600,536,0
653,271,368,564,312,600,536,424,0
271,368,564,312,600,536,424,642,0
368,564,312,600,536,424,642,258,0
564,312,600,536,424,642,258,351,0
312,600,536,424,642,258,351,547,0
600,536,424,642,258,351,547,298,0
536,424,642,258,351,547,298,585,0
424,642,258,351,547,298,585,521,0
642,258,351,547,298,585,521,410,0
258,351,547,298,585,521,410,577,0
351,547,298,585,521,410,577,242,0
547,298,585,521,410,577,242,343,0
298,585,521,410,577,242,343,529,0
585,521,410,577,242,343,529,298,0
521,410,577,242,343,529,298,522,0
410,577,242,343,529,298,522,502,0
577,242,343,529,298,522,502,451,0
242,343,529,298,522,502,451,557,0
343,529,298,522,502,451,557,239,0
529,298,522,502,451,557,239,358,0
298,522,502,451,557,239,358,525,0
522,502,451,557,239,358,525,241,0
502,451,557,239,358,525,241,466,0
451,557,239,358,525,241,466,488,0
557,239,358,525,241,466,488,391,0
239,358,525,241,466,488,391,398,0
358,525,241,466,488,391,398,194,0
525,241,466,488,391,398,194,317,0
241,466,488,391,398,194,317,558,0
466,488,391,398,194,317,558,262,0
488,391,398,194,317,558,262,417,0
391,398,194,317,558,262,417,445,0
398,194,317,558,262,417,445,425,0
194,317,558,262,417,445,425,485,0
317,558,262,417,445,425,485,211,0
558,262,417,445,425,485,211,356,0
262,417,445,425,485,211,356,584,0
417,445,425,485,211,356,584,257,0
445,425,485,211,356,584,257,402,0
425,485,211,356,584,257,402,420,0
485,211,356,584,257,402,420,452,0
211,356,584,257,402,420,452,594,0
356,584,257,402,420,452,594,216,0
584,257,402,420,452,594,216,358,0
257,402,420,452,594,216,358,634,0
402,420,452,594,216,358,634,259,0
420,452,594,216,358,634,259,399,0
452,594,216,358,634,259,399,447,0
594,216,358,634,259,399,447,541,0
216,358,634,259,399,447,541,687,0
358,634,259,399,447,541,687,227,0
634,259,399,447,541,687,227,346,0
259,399,447,541,687,227,346,575,0
399,447,541,687,227,346,575,257,0
447,541,687,227,346,575,257,384,0
541,687,227,346,575,257,384,431,0
687,227,346,575,257,384,431,525,0
227,346,575,257,384,431,525,721,0
346,575,257,384,431,525,721,223,0
575,257,384,431,525,721,223,314,0
257,384,431,525,721,223,314,566,0
384,431,525,721,223,314,566,273,0
431,525,721,223,314,566,273,367,0
525,721,223,314,566,273,367,395,0
721,223,314,566,273,367,395,585,0
223,314,566,273,367,395,585,775,0
314,566,273,367,395,585,775,273,0
566,273,367,395,585,775,273,369,0
273,367,395,585,775,273,369,544,0
367,395,585,775,273,369,544,272,0
395,585,775,273,369,544,272,419,0
585,775,273,369,544,272,419,408,0
775,273,369,544,272,419,408,597,0
273,369,544,272,419,408,597,749,0
369,544,272,419,408,597,749,270,0
544,272,419,408,597,749,270,339,0
272,419,408,597,749,270,339,528,0
419,408,597,749,270,339,528,261,0
408,597,749,270,339,528,261,416,0
597,749,270,339,528,261,416,411,0
749,270,339,528,261,416,411,586,0
270,339,528,261,416,411,586,658,0
339,528,261,416,411,586,658,288,0
528,261,416,411,586,658,288,322,0
261,416,411,586,658,288,322,460,0
416,411,586,658,288,322,460,252,0
411,586,658,288,322,460,252,414,0
586,658,288,322,460,252,414,415,0
658,288,322,460,252,414,415,513,0
288,322,460,252,414,415,513,574,0
322,460,252,414,415,513,574,286,0
460,252,414,415,513,574,286,318,0
252,414,415,513,574,286,318,426,0
414,415,513,574,286,318,426,271,0
415,513,574,286,318,426,271,404,0
513,574,286,318,426,271,404,403,0
574,286,318,426,271,404,403,491,0
286,318,426,271,404,403,491,505,0
318,426,271,404,403,491,505,285,0
426,271,404,403,491,505,285,326,0
271,404,403,491,505,285,326,442,0
404,403,491,505,285,326,442,265,0
403,491,505,285,326,442,265,393,0
491,505,285,326,442,265,393,421,0
505,285,326,442,265,393,421,413,0
285,326,442,265,393,421,413,448,0
326,442,265,393,421,413,448,244,0
442,265,393,421,413,448,244,290,0
265,393,421,413,448,244,290,416,0
393,421,413,448,244,290,416,315,0
421,413,448,244,290,416,315,365,0
413,448,244,290,416,315,365,414,0
448,244,290,416,315,365,414,345,0
244,290,416,315,365,414,345,431,0
290,416,315,365,414,345,431,244,0
416,315,365,414,345,431,244,413,0
315,365,414,345,431,244,413,610,0
365,414,345,431,244,413,610,317,0
414,345,431,244,413,610,317,335,0
345,431,244,413,610,317,335,418,0
431,244,413,610,317,335,418,346,0
244,413,610,317,335,418,346,486,0
413,610,317,335,418,346,486,202,0
610,317,335,418,346,486,202,421,0
317,335,418,346,486,202,421,622,0
335,418,346,486,202,421,622,328,0
418,346,486,202,421,622,328,386,0
346,486,202,421,622,328,386,422,0
486,202,421,622,328,386,422,395,0
202,421,622,328,386,422,395,545,0
421,622,328,386,422,395,545,200,0
622,328,386,422,395,545,200,421,0
328,386,422,395,545,200,421,636,0
386,422,395,545,200,421,636,326,0
422,395,545,200,421,636,326,417,0
395,545,200,421,636,326,417,427,0
545,200,421,636,326,417,427,379,0
200,421,636,326,417,427,379,567,0
421,636,326,417,427,379,567,198,0
636,326,417,427,379,567,198,472,0
326,417,427,379,567,198,472,699,0
417,427,379,567,198,472,699,306,0
427,379,567,198,472,699,306,456,0
379,567,198,472,699,306,456,458,0
567,198,472,699,306,456,458,430,0
198,472,699,306,456,458,430,679,0
472,699,306,456,458,430,679,203,0
699,306,456,458,430,679,203,448,0
306,456,458,430,679,203,448,679,0
456,458,430,679,203,448,679,243,0
458,430,679,203,448,679,243,440,0
430,679,203,448,679,243,440,418,0
679,203,448,679,243,440,418,460,0
203,448,679,243,440,418,460,700,0
448,679,243,440,418,460,700,213,0
679,243,440,418,460,700,213,323,0
243,440,418,460,700,213,323,480,0
440,418,460,700,213,323,480,264,0
418,460,700,213,323,480,264,424,0
460,700,213,323,480,264,424,426,0
700,213,323,480,264,424,426,460,0
213,323,480,264,424,426,460,655,0
323,480,264,424,426,460,655,229,0
480,264,424,426,460,655,229,350,0
264,424,426,460,655,229,350,470,0
424,426,460,655,229,350,470,263,0
426,460,655,229,350,470,263,375,0
460,655,229,350,470,263,375,436,0
655,229,350,470,263,375,436,448,0
229,350,470,263,375,436,448,641,0
350,470,263,375,436,448,641,238,0
470,263,375,436,448,641,238,335,0
263,375,436,448,641,238,335,442,0
375,436,448,641,238,335,442,250,0
436,448,641,238,335,442,250,425,0
448,641,238,335,442,250,425,460,0
641,238,335,442,250,425,460,463,0
238,335,442,250,425,460,463,646,0
335,442,250,425,460,463,646,235,0
442,250,425,460,463,646,235,248,0
250,425,460,463,646,235,248,293,0
425,460,463,646,235,248,293,257,0
460,463,646,235,248,293,257,396,0
463,646,235,248,293,257,396,402,0
646,235,248,293,257,396,402,411,0
235,248,293,257,396,402,411,508,0
248,293,257,396,402,411,508,232,0
293,257,396,402,411,508,232,240,0
257,396,402,411,508,232,240,280,0
396,402,411,508,232,240,280,254,0
402,411,508,232,240,280,254,447,0
411,508,232,240,280,254,447,409,0
508,232,240,280,254,447,409,361,0
232,240,280,254,447,409,361,464,0
240,280,254,447,409,361,464,222,0
280,254,447,409,361,464,222,260,0
254,447,409,361,464,222,260,320,0
447,409,361,464,222,260,320,229,0
409,361,464,222,260,320,229,452,0
361,464,222,260,320,229,452,420,0
464,222,260,320,229,452,420,337,0
222,260,320,229,452,420,337,450,0
260,320,229,452,420,337,450,215,0
320,229,452,420,337,450,215,283,0
229,452,420,337,450,215,283,388,0
452,420,337,450,215,283,388,229,0
420,337,450,215,283,388,229,450,0
337,450,215,283,388,229,450,401,0
450,215,283,388,229,450,401,438,0
215,283,388,229,450,401,438,530,0
283,388,229,450,401,438,530,224,0
388,229,450,401,438,530,224,315,0
229,450,401,438,530,224,315,440,0
450,401,438,530,224,315,440,241,0
401,438,530,224,315,440,241,443,0
438,530,224,315,440,241,443,408,0
530,224,315,440,241,443,408,456,0
224,315,440,241,443,408,456,550,0
315,440,241,443,408,456,550,242,0
440,241,443,408,456,550,242,347,0
241,443,408,456,550,242,347,492,0
443,408,456,550,242,347,492,250,0
408,456,550,242,347,492,250,425,0
456,550,242,347,492,250,425,401,0
550,242,347,492,250,425,401,463,0
242,347,492,250,425,401,463,589,0
347,492,250,425,401,463,589,231,0
492,250,425,401,463,589,231,360,0
250,425,401,463,589,231,360,552,0
425,401,463,589,231,360,552,241,0
401,463,589,231,360,552,241,436,0
463,589,231,360,552,241,436,378,0
589,231,360,552,241,436,378,498,0
231,360,552,241,436,378,498,641,0
360,552,241,436,378,498,641,235,0
552,241,436,378,498,641,235,353,0
241,436,378,498,641,235,353,551,0
436,378,498,641,235,353,551,227,0
378,498,641,235,353,551,227,448,0
498,641,235,353,551,227,448,360,0
641,235,353,551,227,448,360,496,0
235,353,551,227,448,360,496,671,0
353,551,227,448,360,496,671,233,0
551,227,448,360,496,671,233,322,0
227,448,360,496,671,233,322,534,0
448,360,496,671,233,322,534,231,0
360,496,671,233,322,534,231,458,0
496,671,233,322,534,231,458,349,0
671,233,322,534,231,458,349,381,0
233,322,534,231,458,349,381,582,0
322,534,231,458,349,381,582,218,0
534,231,458,349,381,582,218,311,0
231,458,349,381,582,218,311,498,0
458,349,381,582,218,311,498,230,0
349,381,582,218,311,498,230,419,0
381,582,218,311,498,230,419,309,0
582,218,311,498,230,419,309,371,0
218,311,498,230,419,309,371,562,0
311,498,230,419,309,371,562,216,0
498,230,419,309,371,562,216,327,0
230,419,309,371,562,216,327,501,0
419,309,371,562,216,327,501,211,0
309,371,562,216,327,501,211,448,0
371,562,216,327,501,211,448,319,0
562,216,327,501,211,448,319,346,0
216,327,501,211,448,319,346,506,0
327,501,211,448,319,346,506,224,0
501,211,448,319,346,506,224,365,0
211,448,319,346,506,224,365,474,0
448,319,346,506,224,365,474,219,0
319,346,506,224,365,474,219,387,0
346,506,224,365,474,219,387,340,0
506,224,365,474,219,387,340,312,0
224,365,474,219,387,340,312,435,0
365,474,219,387,340,312,435,209,0
474,219,387,340,312,435,209,364,0
219,387,340,312,435,209,364,484,0
387,340,312,435,209,364,484,249,0
340,312,435,209,364,484,249,370,0
312,435,209,364,484,249,370,342,0
435,209,364,484,249,370,342,325,0
209,364,484,249,370,342,325,410,0
364,484,249,370,342,325,410,229,0
484,249,370,342,325,410,229,362,0
249,370,342,325,410,229,362,498,0
370,342,325,410,229,362,498,247,0
342,325,410,229,362,498,247,387,0
325,410,229,362,498,247,387,325,0
410,229,362,498,247,387,325,310,0
229,362,498,247,387,325,310,416,0
362,498,247,387,325,310,416,235,0
498,247,387,325,310,416,235,365,0
247,387,325,310,416,235,365,540,0
387,325,310,416,235,365,540,237,0
325,310,416,235,365,540,237,362,0
310,416,235,365,540,237,362,313,0
416,235,365,540,237,362,313,293,0
235,365,540,237,362,313,293,381,0
365,540,237,362,313,293,381,213,0
540,237,362,313,293,381,213,324,0
237,362,313,293,381,213,324,515,0
362,313,293,381,213,324,515,249,0
313,293,381,213,324,515,249,348,0
293,381,213,324,515,249,348,375,0
381,213,324,515,249,348,375,313,0
213,324,515,249,348,375,313,422,0
324,515,249,348,375,313,422,210,0
515,249,348,375,313,422,210,267,0
249,348,375,313,422,210,267,482,0
348,375,313,422,210,267,482,259,0
375,313,422,210,267,482,259,363,0
313,422,210,267,482,259,363,346,0
422,210,267,482,259,363,346,352,0
210,267,482,259,363,346,352,472,0
267,482,259,363,346,352,472,229,0
482,259,363,346,352,472,229,270,0
259,363,346,352,472,229,270,465,0
363,346,352,472,229,270,465,253,0
346,352,472,229,270,465,253,412,0
352,472,229,270,465,253,412,387,0
472,229,270,465,253,412,387,344,0
229,270,465,253,412,387,344,455,0
270,465,253,412,387,344,455,203,0
465,253,412,387,344,455,203,270,0
253,412,387,344,455,203,270,436,0
412,387,344,455,203,270,436,241,0
387,344,455,203,270,436,241,409,0
344,455,203,270,436,241,409,405,0
455,203,270,436,241,409,405,341,0
203,270,436,241,409,405,341,417,0
270,436,241,409,405,341,417,207,0
436,241,409,405,341,417,207,270,0
241,409,405,341,417,207,270,421,0
409,405,341,417,207,270,421,247,0
405,341,417,207,270,421,247,420,0
341,417,207,270,421,247,420,401,0
417,207,270,421,247,420,401,325,0
207,270,421,247,420,401,325,401,0
270,421,247,420,401,325,401,209,0
421,247,420,401,325,401,209,268,0
247,420,401,325,401,209,268,412,0
420,401,325,401,209,268,412,255,0
401,325,401,209,268,412,255,422,0
325,401,209,268,412,255,422,378,0
401,209,268,412,255,422,378,414,0
209,268,412,255,422,378,414,500,0
268,412,255,422,378,414,500,236,0
412,255,422,378,414,500,236,319,0
255,422,378,414,500,236,319,455,0
422,378,414,500,236,319,455,252,0
378,414,500,236,319,455,252,421,0
414,500,236,319,455,252,421,416,0
500,236,319,455,252,421,416,511,0
236,319,455,252,421,416,511,605,0
319,455,252,421,416,511,605,278,0
455,252,421,416,511,605,278,376,0
252,421,416,511,605,278,376,491,0
421,416,511,605,278,376,491,250,0
416,511,605,278,376,491,250,377,0
511,605,278,376,491,250,377,381,0
605,278,376,491,250,377,381,519,0
278,376,491,250,377,381,519,612,0
376,491,250,377,381,519,612,281,0
491,250,377,381,519,612,281,353,0
250,377,381,519,612,281,353,460,0
377,381,519,612,281,353,460,264,0
381,519,612,281,353,460,264,389,0
519,612,281,353,460,264,389,402,0
612,281,353,460,264,389,402,536,0
281,353,460,264,389,402,536,638,0
353,460,264,389,402,536,638,272,0
460,264,389,402,536,638,272,337,0
264,389,402,536,638,272,337,423,0
389,402,536,638,272,337,423,262,0
402,536,638,272,337,423,262,388,0
536,638,272,337,423,262,388,407,0
638,272,337,423,262,388,407,537,0
272,337,423,262,388,407,537,647,0
337,423,262,388,407,537,647,273,0
423,262,388,407,537,647,273,346,0
262,388,407,537,647,273,346,402,0
388,407,537,647,273,346,402,244,0
407,537,647,273,346,402,244,374,0
537,647,273,346,402,244,374,411,0
647,273,346,402,244,374,411,475,0
273,346,402,244,374,411,475,557,0
346,402,244,374,411,475,557,244,0
402,244,374,411,475,557,244,297,0
244,374,411,475,557,244,297,338,0
374,411,475,557,244,297,338,247,0
411,475,557,244,297,338,247,382,0
475,557,244,297,338,247,382,419,0
557,244,297,338,247,382,419,393,0
244,297,338,247,382,419,393,492,0
297,338,247,382,419,393,492,186,0
338,247,382,419,393,492,186,203,0
247,382,419,393,492,186,203,261,0
382,419,393,492,186,203,261,229,0
419,393,492,186,203,261,229,388,0
393,492,186,203,261,229,388,440,0
492,186,203,261,229,388,440,395,0
186,203,261,229,388,440,395,489,0
203,261,229,388,440,395,489,177,0
261,229,388,440,395,489,177,210,0
229,388,440,395,489,177,210,255,0
388,440,395,489,177,210,255,211,0
440,395,489,177,210,255,211,350,0
395,489,177,210,255,211,350,425,0
489,177,210,255,211,350,425,377,0
177,210,255,211,350,425,377,460,0
210,255,211,350,425,377,460,168,0
255,211,350,425,377,460,168,200,0
211,350,425,377,460,168,200,265,0
350,425,377,460,168,200,265,207,0
425,377,460,168,200,265,207,333,0
377,460,168,200,265,207,333,473,0
460,168,200,265,207,333,473,421,0
168,200,265,207,333,473,421,517,0
200,265,207,333,473,421,517,186,0
265,207,333,473,421,517,186,205,0
207,333,473,421,517,186,205,324,0
333,473,421,517,186,205,324,202,0
473,421,517,186,205,324,202,364,0
421,517,186,205,324,202,364,456,0
517,186,205,324,202,364,456,452,0
186,205,324,202,364,456,452,527,0
205,324,202,364,456,452,527,200,0
324,202,364,456,452,527,200,221,0
202,364,456,452,527,200,221,328,0
364,456,452,527,200,221,328,202,0
456,452,527,200,221,328,202,322,0
452,527,200,221,328,202,322,413,0
527,200,221,328,202,322,413,388,0
200,221,328,202,322,413,388,451,0
221,328,202,322,413,388,451,186,0
328,202,322,413,388,451,186,222,0
202,322,413,388,451,186,222,344,0
322,413,388,451,186,222,344,202,0
413,388,451,186,222,344,202,332,0
388,451,186,222,344,202,332,408,0
451,186,222,344,202,332,408,360,0
186,222,344,202,332,408,360,436,0
222,344,202,332,408,360,436,193,0
344,202,332,408,360,436,193,284,0
202,332,408,360,436,193,284,416,0
332,408,360,436,193,284,416,197,0
408,360,436,193,284,416,197,376,0
360,436,193,284,416,197,376,378,0
436,193,284,416,197,376,378,351,0
193,284,416,197,376,378,351,466,0
284,416,197,376,378,351,466,194,0
416,197,376,378,351,466,194,292,0
197,376,378,351,466,194,292,406,0
376,378,351,466,194,292,406,184,0
378,351,466,194,292,406,184,384,0
351,466,194,292,406,184,384,320,0
466,194,292,406,184,384,320,289,0
194,292,406,184,384,320,289,389,0
292,406,184,384,320,289,389,171,0
406,184,384,320,289,389,171,269,0
184,384,320,289,389,171,269,347,0
384,320,289,389,171,269,347,204,0
320,289,389,171,269,347,204,390,0
289,389,171,269,347,204,390,292,0
389,171,269,347,204,390,292,226,0
171,269,347,204,390,292,226,395,0
269,347,204,390,292,226,395,153,0
347,204,390,292,226,395,153,281,0
204,390,292,226,395,153,281,364,0
390,292,226,395,153,281,364,181,0
292,226,395,153,281,364,181,410,0
226,395,153,281,364,181,410,300,0
395,153,281,364,181,410,300,239,0
153,281,364,181,410,300,239,374,0
281,364,181,410,300,239,374,171,0
364,181,410,300,239,374,171,304,0
181,410,300,239,374,171,304,362,0
410,300,239,374,171,304,362,176,0
300,239,374,171,304,362,176,381,0
239,374,171,304,362,176,381,268,0
374,171,304,362,176,381,268,231,0
171,304,362,176,381,268,231,355,0
304,362,176,381,268,231,355,150,0
362,176,381,268,231,355,150,235,0
176,381,268,231,355,150,235,292,0
381,268,231,355,150,235,292,191,0
268,231,355,150,235,292,191,391,0
231,355,150,235,292,191,391,337,0
355,150,235,292,191,391,337,350,0
150,235,292,191,391,337,350,450,0
235,292,191,391,337,350,450,161,0
292,191,391,337,350,450,161,250,0
191,391,337,350,450,161,250,286,0
391,337,350,450,161,250,286,230,0
337,350,450,161,250,286,230,408,0
350,450,161,250,286,230,408,348,0
450,161,250,286,230,408,348,352,0
161,250,286,230,408,348,352,465,0
250,286,230,408,348,352,465,173,0
286,230,408,348,352,465,173,279,0
230,408,348,352,465,173,279,362,0
408,348,352,465,173,279,362,243,0
348,352,465,173,279,362,243,360,0
352,465,173,279,362,243,360,365,0
465,173,279,362,243,360,365,344,0
173,279,362,243,360,365,344,462,0
279,362,243,360,365,344,462,198,0
362,243,360,365,344,462,198,313,0
243,360,365,344,462,198,313,398,0
360,365,344,462,198,313,398,269,0
365,344,462,198,313,398,269,334,0
344,462,198,313,398,269,334,381,0
462,198,313,398,269,334,381,341,0
198,313,398,269,334,381,341,466,0
313,398,269,334,381,341,466,188,0
398,269,334,381,341,466,188,337,0
269,334,381,341,466,188,337,455,0
334,381,341,466,188,337,455,277,0
381,341,466,188,337,455,277,349,0
341,466,188,337,455,277,349,411,0
466,188,337,455,277,349,411,384,0
188,337,455,277,349,411,384,497,0
337,455,277,349,411,384,497,193,0
455,277,349,411,384,497,193,337,0
277,349,411,384,497,193,337,450,0
349,411,384,497,193,337,450,290,0
411,384,497,193,337,450,290,308,0
384,497,193,337,450,290,308,361,0
497,193,337,450,290,308,361,361,0
193,337,450,290,308,361,361,403,0
337,450,290,308,361,361,403,204,0
450,290,308,361,361,403,204,352,0
290,308,361,361,403,204,352,482,0
308,361,361,403,204,352,482,267,0
361,361,403,204,352,482,267,293,0
361,403,204,352,482,267,293,360,0
403,204,352,482,267,293,360,426,0
204,352,482,267,293,360,426,428,0
352,482,267,293,360,426,428,220,0
482,267,293,360,426,428,220,363,0
267,293,360,426,428,220,363,452,0
293,360,426,428,220,363,452,244,0
360,426,428,220,363,452,244,362,0
426,428,220,363,452,244,362,351,0
428,220,363,452,244,362,351,424,0
220,363,452,244,362,351,424,413,0
363,452,244,362,351,424,413,198,0
452,244,362,351,424,413,198,313,0
244,362,351,424,413,198,313,405,0
362,351,424,413,198,313,405,227,0
351,424,413,198,313,405,227,390,0
424,413,198,313,405,227,390,368,0
413,198,313,405,227,390,368,435,0
198,313,405,227,390,368,435,435,0
313,405,227,390,368,435,435,197,0
405,227,390,368,435,435,197,266,0
227,390,368,435,435,197,266,320,0
390,368,435,435,197,266,320,231,0
368,435,435,197,266,320,231,412,0
435,435,197,266,320,231,412,334,0
435,197,266,320,231,412,334,426,0
197,266,320,231,412,334,426,507,0
266,320,231,412,334,426,507,218,0
320,231,412,334,426,507,218,283,0
231,412,334,426,507,218,283,327,0
412,334,426,507,218,283,327,195,0
334,426,507,218,283,327,195,417,0
426,507,218,283,327,195,417,374,0
507,218,283,327,195,417,374,374,0
218,283,327,195,417,374,374,480,0
283,327,195,417,374,374,480,194,0
327,195,417,374,374,480,194,240,0
195,417,374,374,480,194,240,268,0
417,374,374,480,194,240,268,229,0
374,374,480,194,240,268,229,397,0
374,480,194,240,268,229,397,366,0
480,194,240,268,229,397,366,297,0
194,240,268,229,397,366,297,477,0
240,268,229,397,366,297,477,166,0
268,229,397,366,297,477,166,201,0
229,397,366,297,477,166,201,320,0
397,366,297,477,166,201,320,250,0
366,297,477,166,201,320,250,355,0
297,477,166,201,320,250,355,368,0
477,166,201,320,250,355,368,377,0
166,201,320,250,355,368,377,564,0
201,320,250,355,368,377,564,194,0
320,250,355,368,377,564,194,220,0
250,355,368,377,564,194,220,351,0
355,368,377,564,194,220,351,265,0
368,377,564,194,220,351,265,364,0
377,564,194,220,351,265,364,381,0
564,194,220,351,265,364,381,398,0
194,220,351,265,364,381,398,552,0
220,351,265,364,381,398,552,198,0
351,265,364,381,398,552,198,232,0
265,364,381,398,552,198,232,374,0
364,381,398,552,198,232,374,251,0
381,398,552,198,232,374,251,337,0
398,552,198,232,374,251,337,373,0
552,198,232,374,251,337,373,378,0
198,232,374,251,337,373,378,507,0
232,374,251,337,373,378,507,197,0
374,251,337,373,378,507,197,252,0
251,337,373,378,507,197,252,408,0
337,373,378,507,197,252,408,265,0
373,378,507,197,252,408,265,336,0
378,507,197,252,408,265,336,365,0
507,197,252,408,265,336,365,381,0
197,252,408,265,336,365,381,507,0
252,408,265,336,365,381,507,200,0
408,265,336,365,381,507,200,286,0
265,336,365,381,507,200,286,436,0
336,365,381,507,200,286,436,298,0
365,381,507,200,286,436,298,366,0
381,507,200,286,436,298,366,377,0
507,200,286,436,298,366,377,417,0
200,286,436,298,366,377,417,496,0
286,436,298,366,377,417,496,247,0
436,298,366,377,417,496,247,339,0
298,366,377,417,496,247,339,442,0
366,377,417,496,247,339,442,289,0
377,417,496,247,339,442,289,369,0
417,496,247,339,442,289,369,371,0
496,247,339,442,289,369,371,383,0
247,339,442,289,369,371,383,425,0
339,442,289,369,371,383,425,234,0
442,289,369,371,383,425,234,336,0
289,369,371,383,425,234,336,424,0
369,371,383,425,234,336,424,274,0
371,383,425,234,336,424,274,339,0
383,425,234,336,424,274,339,320,0
425,234,336,424,274,339,320,334,0
234,336,424,274,339,320,334,400,0
336,424,274,339,320,334,400,223,0
424,274,339,320,334,400,223,330,0
274,339,320,334,400,223,330,465,0
339,320,334,400,223,330,465,277,0
320,334,400,223,330,465,277,332,0
334,400,223,330,465,277,332,299,0
400,223,330,465,277,332,299,325,0
223,330,465,277,332,299,325,381,0
330,465,277,332,299,325,381,214,0
465,277,332,299,325,381,214,322,0
277,332,299,325,381,214,322,472,0
332,299,325,381,214,322,472,277,0
299,325,381,214,322,472,277,307,0
325,381,214,322,472,277,307,255,0
381,214,322,472,277,307,255,315,0
214,322,472,277,307,255,315,437,0
322,472,277,307,255,315,437,217,0
472,277,307,255,315,437,217,303,0
277,307,255,315,437,217,303,455,0
307,255,315,437,217,303,455,227,0
255,315,437,217,303,455,227,301,0
315,437,217,303,455,227,301,280,0
437,217,303,455,227,301,280,280,0
217,303,455,227,301,280,280,418,0
303,455,227,301,280,280,418,166,0
455,227,301,280,280,418,166,237,0
227,301,280,280,418,166,237,400,0
301,280,280,418,166,237,400,214,0
280,280,418,166,237,400,214,303,0
280,418,166,237,400,214,303,292,0
418,166,237,400,214,303,292,234,0
166,237,400,214,303,292,234,398,0
237,400,214,303,292,234,398,161,0
400,214,303,292,234,398,161,241,0
214,303,292,234,398,161,241,423,0
303,292,234,398,161,241,423,221,0
292,234,398,161,241,423,221,332,0
234,398,161,241,423,221,332,303,0
398,161,241,423,221,332,303,240,0
161,241,423,221,332,303,240,443,0
241,423,221,332,303,240,443,172,0
423,221,332,303,240,443,172,242,0
221,332,303,240,443,172,242,392,0
332,303,240,443,172,242,392,227,0
303,240,443,172,242,392,227,332,0
240,443,172,242,392,227,332,345,0
443,172,242,392,227,332,345,342,0
172,242,392,227,332,345,342,544,0
242,392,227,332,345,342,544,190,0
392,227,332,345,342,544,190,242,0
227,332,345,342,544,190,242,344,0
332,345,342,544,190,242,344,220,0
345,342,544,190,242,344,220,365,0
342,544,190,242,344,220,365,353,0
544,190,242,344,220,365,353,357,0
190,242,344,220,365,353,357,517,0
242,344,220,365,353,357,517,187,0
344,220,365,353,357,517,187,239,0
220,365,353,357,517,187,239,350,0
365,353,357,517,187,239,350,191,0
353,357,517,187,239,350,191,401,0
357,517,187,239,350,191,401,369,0
517,187,239,350,191,401,369,414,0
187,239,350,191,401,369,414,577,0
239,350,191,401,369,414,577,208,0
350,191,401,369,414,577,208,281,0
191,401,369,414,577,208,281,406,0
401,369,414,577,208,281,406,189,0
369,414,577,208,281,406,189,390,0
414,577,208,281,406,189,390,353,0
577,208,281,406,189,390,353,433,0
208,281,406,189,390,353,433,562,0
281,406,189,390,353,433,562,201,0
406,189,390,353,433,562,201,279,0
189,390,353,433,562,201,279,372,0
390,353,433,562,201,279,372,162,0
353,433,562,201,279,372,162,380,0
433,562,201,279,372,162,380,353,0
562,201,279,372,162,380,353,427,0
201,279,372,162,380,353,427,524,0
279,372,162,380,353,427,524,190,0
372,162,380,353,427,524,190,268,0
162,380,353,427,524,190,268,352,0
380,353,427,524,190,268,352,182,0
353,427,524,190,268,352,182,373,0
427,524,190,268,352,182,373,332,0
524,190,268,352,182,373,332,355,0
190,268,352,182,373,332,355,465,0
268,352,182,373,332,355,465,171,0
352,182,373,332,355,465,171,257,0
182,373,332,355,465,171,257,375,0
373,332,355,465,171,257,375,193,0
332,355,465,171,257,375,193,335,0
355,465,171,257,375,193,335,317,0
465,171,257,375,193,335,317,357,0
171,257,375,193,335,317,357,461,0
257,375,193,335,317,357,461,163,0
375,193,335,317,357,461,163,250,0
193,335,317,357,461,163,250,378,0
335,317,357,461,163,250,378,208,0
317,357,461,163,250,378,208,258,0
357,461,163,250,378,208,258,247,0
461,163,250,378,208,258,247,268,0
163,250,378,208,258,247,268,386,0
250,378,208,258,247,268,386,125,0
378,208,258,247,268,386,125,222,0
208,258,247,268,386,125,222,355,0
258,247,268,386,125,222,355,206,0
247,268,386,125,222,355,206,260,0
268,386,125,222,355,206,260,252,0
386,125,222,355,206,260,252,235,0
125,222,355,206,260,252,235,409,0
222,355,206,260,252,235,409,133,0
355,206,260,252,235,409,133,206,0
206,260,252,235,409,133,206,358,0
260,252,235,409,133,206,358,208,0
252,235,409,133,206,358,208,228,0
235,409,133,206,358,208,228,280,0
409,133,206,358,208,228,280,342,0
133,206,358,208,228,280,342,519,0
206,358,208,228,280,342,519,159,0
358,208,228,280,342,519,159,215,0
208,228,280,342,519,159,215,341,0
228,280,342,519,159,215,341,191,0
280,342,519,159,215,341,191,242,0
342,519,159,215,341,191,242,387,0
519,159,215,341,191,242,387,420,0
159,215,341,191,242,387,420,541,0
215,341,191,242,387,420,541,189,0
341,191,242,387,420,541,189,208,0
191,242,387,420,541,189,208,308,0
242,387,420,541,189,208,308,204,0
387,420,541,189,208,308,204,297,0
420,541,189,208,308,204,297,385,0
541,189,208,308,204,297,385,398,0
189,208,308,204,297,385,398,544,0
208,308,204,297,385,398,544,208,0
308,204,297,385,398,544,208,300,0
204,297,385,398,544,208,300,441,0
297,385,398,544,208,300,441,182,0
385,398,544,208,300,441,182,341,0
398,544,208,300,441,182,341,417,0
544,208,300,441,182,341,417,415,0
208,300,441,182,341,417,415,550,0
300,441,182,341,417,415,550,210,0
441,182,341,417,415,550,210,285,0
182,341,417,415,550,210,285,414,0
341,417,415,550,210,285,414,189,0
417,415,550,210,285,414,189,336,0
415,550,210,285,414,189,336,426,0
550,210,285,414,189,336,426,423,0
210,285,414,189,336,426,423,525,0
285,414,189,336,426,423,525,210,0
414,189,336,426,423,525,210,285,0
189,336,426,423,525,210,285,409,0
336,426,423,525,210,285,409,185,0
426,423,525,210,285,409,185,342,0
423,525,210,285,409,185,342,400,0
525,210,285,409,185,342,400,352,0
210,285,409,185,342,400,352,448,0
285,409,185,342,400,352,448,204,0
409,185,342,400,352,448,204,284,0
185,342,400,352,448,204,284,412,0
342,400,352,448,204,284,412,174,0
400,352,448,204,284,412,174,377,0
352,448,204,284,412,174,377,323,0
448,204,284,412,174,377,323,255,0
204,284,412,174,377,323,255,325,0
284,412,174,377,323,255,325,164,0
412,174,377,323,255,325,164,275,0
174,377,323,255,325,164,275,403,0
377,323,255,325,164,275,403,165,0
323,255,325,164,275,403,165,342,0
255,325,164,275,403,165,342,336,0
325,164,275,403,165,342,336,273,0
164,275,403,165,342,336,273,307,0
275,403,165,342,336,273,307,148,0
403,165,342,336,273,307,148,187,0
165,342,336,273,307,148,187,282,0
342,336,273,307,148,187,282,183,0
336,273,307,148,187,282,183,335,0
273,307,148,187,282,183,335,308,0
307,148,187,282,183,335,308,288,0
148,187,282,183,335,308,288,305,0
187,282,183,335,308,288,305,152,0
282,183,335,308,288,305,152,208,0
183,335,308,288,305,152,208,304,0
335,308,288,305,152,208,304,183,0
308,288,305,152,208,304,183,341,0
288,305,152,208,304,183,341,295,0
305,152,208,304,183,341,295,285,0
152,208,304,183,341,295,285,338,0
208,304,183,341,295,285,338,155,0
304,183,341,295,285,338,155,224,0
183,341,295,285,338,155,224,303,0
341,295,285,338,155,224,303,205,0
295,285,338,155,224,303,205,345,0
285,338,155,224,303,205,345,314,0
338,155,224,303,205,345,314,283,0
155,224,303,205,345,314,283,301,0
224,303,205,345,314,283,301,138,0
303,205,345,314,283,301,138,220,0
205,345,314,283,301,138,220,329,0
345,314,283,301,138,220,329,218,0
314,283,301,138,220,329,218,337,0
283,301,138,220,329,218,337,313,0
301,138,220,329,218,337,313,327,0
138,220,329,218,337,313,327,371,0
220,329,218,337,313,327,371,164,0
329,218,337,313,327,371,164,287,0
218,337,313,327,371,164,287,437,0
337,313,327,371,164,287,437,193,0
313,327,371,164,287,437,193,355,0
327,371,164,287,437,193,355,306,0
371,164,287,437,193,355,306,307,0
164,287,437,193,355,306,307,365,0
287,437,193,355,306,307,365,162,0
437,193,355,306,307,365,162,291,0
193,355,306,307,365,162,291,424,0
355,306,307,365,162,291,424,186,0
306,307,365,162,291,424,186,361,0
307,365,162,291,424,186,361,330,0
365,162,291,424,186,361,330,305,0
162,291,424,186,361,330,305,372,0
291,424,186,361,330,305,372,155,0
424,186,361,330,305,372,155,267,0
186,361,330,305,372,155,267,396,0
361,330,305,372,155,267,396,219,0
330,305,372,155,267,396,219,360,0
305,372,155,267,396,219,360,332,0
372,155,267,396,219,360,332,304,0
155,267,396,219,360,332,304,435,0
267,396,219,360,332,304,435,173,0
396,219,360,332,304,435,173,307,0
219,360,332,304,435,173,307,480,0
360,332,304,435,173,307,480,212,0
332,304,435,173,307,480,212,359,0
304,435,173,307,480,212,359,312,0
435,173,307,480,212,359,312,311,0
173,307,480,212,359,312,311,437,0
307,480,212,359,312,311,437,182,0
480,212,359,312,311,437,182,309,0
212,359,312,311,437,182,309,495,0
359,312,311,437,182,309,495,206,0
312,311,437,182,309,495,206,334,0
311,437,182,309,495,206,334,288,0
437,182,309,495,206,334,288,268,0
182,309,495,206,334,288,268,388,0
309,495,206,334,288,268,388,175,0
495,206,334,288,268,388,175,279,0
206,334,288,268,388,175,279,446,0
334,288,268,388,175,279,446,214,0
288,268,388,175,279,446,214,314,0
268,388,175,279,446,214,314,279,0
388,175,279,446,214,314,279,268,0
175,279,446,214,314,279,268,388,0
279,446,214,314,279,268,388,173,0
446,214,314,279,268,388,173,269,0
214,314,279,268,388,173,269,435,0
314,279,268,388,173,269,435,230,0
279,268,388,173,269,435,230,303,0
268,388,173,269,435,230,303,233,0
388,173,269,435,230,303,233,217,0
173,269,435,230,303,233,217,376,0
269,435,230,303,233,217,376,183,0
435,230,303,233,217,376,183,290,0
230,303,233,217,376,183,290,468,0
303,233,217,376,183,290,468,187,0
233,217,376,183,290,468,187,321,0
217,376,183,290,468,187,321,245,0
376,183,290,468,187,321,245,239,0
183,290,468,187,321,245,239,364,0
290,468,187,321,245,239,364,158,0
468,187,321,245,239,364,158,234,0
187,321,245,239,364,158,234,381,0
321,245,239,364,158,234,381,177,0
245,239,364,158,234,381,177,308,0
239,364,158,234,381,177,308,268,0
364,158,234,381,177,308,268,254,0
158,234,381,177,308,268,254,394,0
234,381,177,308,268,254,394,157,0
381,177,308,268,254,394,157,239,0
177,308,268,254,394,157,239,344,0
308,268,254,394,157,239,344,200,0
268,254,394,157,239,344,200,293,0
254,394,157,239,344,200,293,309,0
394,157,239,344,200,293,309,277,0
157,239,344,200,293,309,277,434,0
239,344,200,293,309,277,434,160,0
344,200,293,309,277,434,160,241,0
200,293,309,277,434,160,241,368,0
293,309,277,434,160,241,368,202,0
309,277,434,160,241,368,202,289,0
277,434,160,241,368,202,289,329,0
434,160,241,368,202,289,329,301,0
160,241,368,202,289,329,301,433,0
241,368,202,289,329,301,433,172,0
368,202,289,329,301,433,172,251,0
202,289,329,301,433,172,251,373,0
289,329,301,433,172,251,373,189,0
329,301,433,172,251,373,189,311,0
301,433,172,251,373,189,311,346,0
433,172,251,373,189,311,346,301,0
172,251,373,189,311,346,301,446,0
251,373,189,311,346,301,446,172,0
373,189,311,346,301,446,172,224,0
189,311,346,301,446,172,224,331,0
311,346,301,446,172,224,331,197,0
346,301,446,172,224,331,197,290,0
301,446,172,224,331,197,290,328,0
446,172,224,331,197,290,328,290,0
172,224,331,197,290,328,290,438,0
224,331,197,290,328,290,438,181,0
331,197,290,328,290,438,181,243,0
197,290,328,290,438,181,243,361,0
290,328,290,438,181,243,361,201,0
328,290,438,181,243,361,201,356,0
290,438,181,243,361,201,356,314,0
438,181,243,361,201,356,314,273,0
181,243,361,201,356,314,273,438,0
243,361,201,356,314,273,438,174,0
361,201,356,314,273,438,174,258,0
201,356,314,273,438,174,258,380,0
356,314,273,438,174,258,380,163,0
314,273,438,174,258,380,163,364,0
273,438,174,258,380,163,364,284,0
438,174,258,380,163,364,284,272,0
174,258,380,163,364,284,272,413,0
258,380,163,364,284,272,413,168,0
380,163,364,284,272,413,168,223,0
163,364,284,272,413,168,223,322,0
364,284,272,413,168,223,322,197,0
284,272,413,168,223,322,197,386,0
272,413,168,223,322,197,386,286,0
413,168,223,322,197,386,286,281,0
168,223,322,197,386,286,281,403,0
223,322,197,386,286,281,403,179,0
322,197,386,286,281,403,179,270,0
197,386,286,281,403,179,270,444,0
386,286,281,403,179,270,444,192,0
286,281,403,179,270,444,192,348,0
281,403,179,270,444,192,348,256,0
403,179,270,444,192,348,256,304,0
179,270,444,192,348,256,304,406,0
270,444,192,348,256,304,406,170,0
444,192,348,256,304,406,170,273,0
192,348,256,304,406,170,273,458,0
348,256,304,406,170,273,458,190,0
256,304,406,170,273,458,190,344,0
304,406,170,273,458,190,344,289,0
406,170,273,458,190,344,289,294,0
170,273,458,190,344,289,294,356,0
273,458,190,344,289,294,356,163,0
458,190,344,289,294,356,163,270,0
190,344,289,294,356,163,270,453,0
344,289,294,356,163,270,453,200,0
289,294,356,163,270,453,200,292,0
294,356,163,270,453,200,292,286,0
356,163,270,453,200,292,286,299,0
163,270,453,200,292,286,299,341,0
270,453,200,292,286,299,341,186,0
453,200,292,286,299,341,186,284,0
200,292,286,299,341,186,284,475,0
292,286,299,341,186,284,475,213,0
286,299,341,186,284,475,213,345,0
299,341,186,284,475,213,345,276,0
341,186,284,475,213,345,276,327,0
186,284,475,213,345,276,327,474,0
284,475,213,345,276,327,474,194,0
475,213,345,276,327,474,194,307,0
213,345,276,327,474,194,307,484,0
345,276,327,474,194,307,484,187,0
276,327,474,194,307,484,187,346,0
327,474,194,307,484,187,346,249,0
474,194,307,484,187,346,249,293,0
194,307,484,187,346,249,293,470,0
307,484,187,346,249,293,470,177,0
484,187,346,249,293,470,177,285,0
187,346,249,293,470,177,285,391,0
346,249,293,470,177,285,391,200,0
249,293,470,177,285,391,200,356,0
293,470,177,285,391,200,356,275,0
470,177,285,391,200,356,275,273,0
177,285,391,200,356,275,273,461,0
285,391,200,356,275,273,461,184,0
391,200,356,275,273,461,184,299,0
200,356,275,273,461,184,299,416,0
356,275,273,461,184,299,416,215,0
275,273,461,184,299,416,215,371,0
273,461,184,299,416,215,371,261,0
461,184,299,416,215,371,261,286,0
184,299,416,215,371,261,286,495,0
299,416,215,371,261,286,495,201,0
416,215,371,261,286,495,201,283,0
215,371,261,286,495,201,283,407,0
371,261,286,495,201,283,407,203,0
261,286,495,201,283,407,203,378,0
286,495,201,283,407,203,378,263,0
495,201,283,407,203,378,263,308,0
201,283,407,203,378,263,308,510,0
283,407,203,378,263,308,510,180,0
407,203,378,263,308,510,180,252,0
203,378,263,308,510,180,252,368,0
378,263,308,510,180,252,368,202,0
263,308,510,180,252,368,202,320,0
308,510,180,252,368,202,320,255,0
510,180,252,368,202,320,255,243,0
180,252,368,202,320,255,243,374,0
252,368,202,320,255,243,374,165,0
368,202,320,255,243,374,165,236,0
202,320,255,243,374,165,236,379,0
320,255,243,374,165,236,379,196,0
255,243,374,165,236,379,196,304,0
243,374,165,236,379,196,304,256,0
374,165,236,379,196,304,256,249,0
165,236,379,196,304,256,249,395,0
236,379,196,304,256,249,395,158,0
379,196,304,256,249,395,158,244,0
196,304,256,249,395,158,244,405,0
304,256,249,395,158,244,405,190,0
256,249,395,158,244,405,190,301,0
249,395,158,244,405,190,301,236,0
395,158,244,405,190,301,236,254,0
158,244,405,190,301,236,254,388,0
244,405,190,301,236,254,388,180,0
405,190,301,236,254,388,180,296,0
190,301,236,254,388,180,296,425,0
301,236,254,388,180,296,425,170,0
236,254,388,180,296,425,170,285,0
254,388,180,296,425,170,285,215,0
388,180,296,425,170,285,215,232,0
180,296,425,170,285,215,232,347,0
296,425,170,285,215,232,347,159,0
425,170,285,215,232,347,159,301,0
170,285,215,232,347,159,301,410,0
285,215,232,347,159,301,410,174,0
215,232,347,159,301,410,174,276,0
232,347,159,301,410,174,276,205,0
347,159,301,410,174,276,205,219,0
159,301,410,174,276,205,219,328,0
301,410,174,276,205,219,328,162,0
410,174,276,205,219,328,162,312,0
174,276,205,219,328,162,312,413,0
276,205,219,328,162,312,413,185,0
205,219,328,162,312,413,185,292,0
219,328,162,312,413,185,292,191,0
328,162,312,413,185,292,191,249,0
162,312,413,185,292,191,249,396,0
312,413,185,292,191,249,396,188,0
413,185,292,191,249,396,188,356,0
185,292,191,249,396,188,356,483,0
292,191,249,396,188,356,483,201,0
191,249,396,188,356,483,201,284,0
249,396,188,356,483,201,284,204,0
396,188,356,483,201,284,204,251,0
188,356,483,201,284,204,251,379,0
356,483,201,284,204,251,379,192,0
483,201,284,204,251,379,192,340,0
201,284,204,251,379,192,340,470,0
284,204,251,379,192,340,470,193,0
204,251,379,192,340,470,193,282,0
251,379,192,340,470,193,282,217,0
379,192,340,470,193,282,217,269,0
192,340,470,193,282,217,269,392,0
340,470,193,282,217,269,392,171,0
470,193,282,217,269,392,171,285,0
193,282,217,269,392,171,285,414,0
282,217,269,392,171,285,414,212,0
217,269,392,171,285,414,212,286,0
269,392,171,285,414,212,286,224,0
392,171,285,414,212,286,224,295,0
171,285,414,212,286,224,295,438,0
285,414,212,286,224,295,438,184,0
414,212,286,224,295,438,184,310,0
212,286,224,295,438,184,310,460,0
286,224,295,438,184,310,460,238,0
224,295,438,184,310,460,238,264,0
295,438,184,310,460,238,264,233,0
438,184,310,460,238,264,233,268,0
184,310,460,238,264,233,268,441,0
310,460,238,264,233,268,441,186,0
460,238,264,233,268,441,186,311,0
238,264,233,268,441,186,311,489,0
264,233,268,441,186,311,489,225,0
233,268,441,186,311,489,225,237,0
268,441,186,311,489,225,237,222,0
441,186,311,489,225,237,222,253,0
186,311,489,225,237,222,253,397,0
311,489,225,237,222,253,397,152,0
489,225,237,222,253,397,152,252,0
225,237,222,253,397,152,252,393,0
237,222,253,397,152,252,393,206,0
222,253,397,152,252,393,206,268,0
253,397,152,252,393,206,268,215,0
397,152,252,393,206,268,215,265,0
152,252,393,206,268,215,265,409,0
252,393,206,268,215,265,409,151,0
393,206,268,215,265,409,151,236,0
206,268,215,265,409,151,236,354,0
268,215,265,409,151,236,354,203,0
215,265,409,151,236,354,203,297,0
265,409,151,236,354,203,297,199,0
409,151,236,354,203,297,199,261,0
151,236,354,203,297,199,261,413,0
236,354,203,297,199,261,413,136,0
354,203,297,199,261,413,136,234,0
203,297,199,261,413,136,234,370,0
297,199,261,413,136,234,370,211,0
199,261,413,136,234,370,211,292,0
261,413,136,234,370,211,292,215,0
413,136,234,370,211,292,215,259,0
136,234,370,211,292,215,259,381,0
234,370,211,292,215,259,381,132,0
370,211,292,215,259,381,132,216,0
211,292,215,259,381,132,216,391,0
292,215,259,381,132,216,391,188,0
215,259,381,132,216,391,188,338,0
259,381,132,216,391,188,338,204,0
381,132,216,391,188,338,204,271,0
132,216,391,188,338,204,271,367,0
216,391,188,338,204,271,367,130,0
391,188,338,204,271,367,130,197,0
188,338,204,271,367,130,197,352,0
338,204,271,367,130,197,352,186,0
204,271,367,130,197,352,186,350,0
271,367,130,197,352,186,350,235,0
367,130,197,352,186,350,235,339,0
130,197,352,186,350,235,339,412,0
197,352,186,350,235,339,412,157,0
352,186,350,235,339,412,157,209,0
186,350,235,339,412,157,209,350,0
350,235,339,412,157,209,350,186,0
235,339,412,157,209,350,186,335,0
339,412,157,209,350,186,335,271,0
412,157,209,350,186,335,271,385,0
157,209,350,186,335,271,385,505,0
209,350,186,335,271,385,505,163,0
350,186,335,271,385,505,163,212,0
186,335,271,385,505,163,212,359,0
335,271,385,505,163,212,359,190,0
271,385,505,163,212,359,190,359,0
385,505,163,212,359,190,359,278,0
505,163,212,359,190,359,278,378,0
163,212,359,190,359,278,378,490,0
212,359,190,359,278,378,490,164,0
359,190,359,278,378,490,164,214,0
190,359,278,378,490,164,214,383,0
359,278,378,490,164,214,383,182,0
278,378,490,164,214,383,182,388,0
378,490,164,214,383,182,388,290,0
490,164,214,383,182,388,290,383,0
164,214,383,182,388,290,383,486,0
214,383,182,388,290,383,486,155,0
383,182,388,290,383,486,155,197,0
182,388,290,383,486,155,197,317,0
388,290,383,486,155,197,317,172,0
290,383,486,155,197,317,172,371,0
383,486,155,197,317,172,371,327,0
486,155,197,317,172,371,327,400,0
155,197,317,172,371,327,400,478,0
197,317,172,371,327,400,478,159,0
317,172,371,327,400,478,159,199,0
172,371,327,400,478,159,199,319,0
371,327,400,478,159,199,319,180,0
327,400,478,159,199,319,180,370,0
400,478,159,199,319,180,370,314,0
478,159,199,319,180,370,314,359,0
159,199,319,180,370,314,359,429,0
199,319,180,370,314,359,429,140,0
319,180,370,314,359,429,140,182,0
180,370,314,359,429,140,182,309,0
370,314,359,429,140,182,309,186,0
314,359,429,140,182,309,186,408,0
359,429,140,182,309,186,408,325,0
429,140,182,309,186,408,325,309,0
140,182,309,186,408,325,309,300,0
182,309,186,408,325,309,300,133,0
309,186,408,325,309,300,133,192,0
186,408,325,309,300,133,192,332,0
408,325,309,300,133,192,332,178,0
325,309,300,133,192,332,178,350,0
309,300,133,192,332,178,350,329,0
300,133,192,332,178,350,329,332,0
133,192,332,178,350,329,332,353,0
192,332,178,350,329,332,353,169,0
332,178,350,329,332,353,169,242,0
178,350,329,332,353,169,242,332,0
350,329,332,353,169,242,332,176,0
329,332,353,169,242,332,176,324,0
332,353,169,242,332,176,324,314,0
353,169,242,332,176,324,314,333,0
169,242,332,176,324,314,333,345,0
242,332,176,324,314,333,345,187,0
332,176,324,314,333,345,187,237,0
176,324,314,333,345,187,237,315,0
324,314,333,345,187,237,315,182,0
314,333,345,187,237,315,182,321,0
333,345,187,237,315,182,321,311,0
345,187,237,315,182,321,311,342,0
187,237,315,182,321,311,342,377,0
237,315,182,321,311,342,377,190,0
315,182,321,311,342,377,190,225,0
182,321,311,342,377,190,225,298,0
321,311,342,377,190,225,298,180,0
311,342,377,190,225,298,180,340,0
342,377,190,225,298,180,340,304,0
377,190,225,298,180,340,304,331,0
190,225,298,180,340,304,331,410,0
225,298,180,340,304,331,410,186,0
298,180,340,304,331,410,186,236,0
180,340,304,331,410,186,236,359,0
340,304,331,410,186,236,359,178,0
304,331,410,186,236,359,178,321,0
331,410,186,236,359,178,321,279,0
410,186,236,359,178,321,279,325,0
186,236,359,178,321,279,325,418,0
236,359,178,321,279,325,418,194,0
359,178,321,279,325,418,194,250,0
178,321,279,325,418,194,250,363,0
321,279,325,418,194,250,363,202,0
279,325,418,194,250,363,202,326,0
325,418,194,250,363,202,326,264,0
418,194,250,363,202,326,264,299,0
194,250,363,202,326,264,299,381,0
250,363,202,326,264,299,381,174,0
363,202,326,264,299,381,174,194,0
202,326,264,299,381,174,194,319,0
326,264,299,381,174,194,319,185,0
264,299,381,174,194,319,185,335,0
299,381,174,194,319,185,335,258,0
381,174,194,319,185,335,258,263,0
174,194,319,185,335,258,263,384,0
194,319,185,335,258,263,384,173,0
319,185,335,258,263,384,173,201,0
185,335,258,263,384,173,201,342,0
335,258,263,384,173,201,342,193,0
258,263,384,173,201,342,193,346,0
263,384,173,201,342,193,346,216,0
384,173,201,342,193,346,216,235,0
173,201,342,193,346,216,235,370,0
201,342,193,346,216,235,370,167,0
342,193,346,216,235,370,167,215,0
193,346,216,235,370,167,215,352,0
346,216,235,370,167,215,352,180,0
216,235,370,167,215,352,180,326,0
235,370,167,215,352,180,326,220,0
370,167,215,352,180,326,220,226,0
167,215,352,180,326,220,226,363,0
215,352,180,326,220,226,363,166,0
352,180,326,220,226,363,166,237,0
180,326,220,226,363,166,237,319,0
326,220,226,363,166,237,319,191,0
220,226,363,166,237,319,191,289,0
226,363,166,237,319,191,289,198,0
363,166,237,319,191,289,198,257,0
166,237,319,191,289,198,257,385,0
237,319,191,289,198,257,385,157,0
319,191,289,198,257,385,157,237,0
191,289,198,257,385,157,237,309,0
289,198,257,385,157,237,309,166,0
198,257,385,157,237,309,166,301,0
257,385,157,237,309,166,301,195,0
385,157,237,309,166,301,195,244,0
157,237,309,166,301,195,244,387,0
237,309,166,301,195,244,387,152,0
309,166,301,195,244,387,152,239,0
166,301,195,244,387,152,239,321,0
301,195,244,387,152,239,321,191,0
195,244,387,152,239,321,191,271,0
244,387,152,239,321,191,271,206,0
387,152,239,321,191,271,206,250,0
152,239,321,191,271,206,250,366,0
239,321,191,271,206,250,366,146,0
321,191,271,206,250,366,146,259,0
191,271,206,250,366,146,259,380,0
271,206,250,366,146,259,380,197,0
206,250,366,146,259,380,197,258,0
250,366,146,259,380,197,258,214,0
366,146,259,380,197,258,214,221,0
146,259,380,197,258,214,221,372,0
259,380,197,258,214,221,372,134,0
380,197,258,214,221,372,134,270,0
197,258,214,221,372,134,270,394,0
258,214,221,372,134,270,394,195,0
214,221,372,134,270,394,195,285,0
221,372,134,270,394,195,285,219,0
372,134,270,394,195,285,219,208,0
134,270,394,195,285,219,208,329,0
270,394,195,285,219,208,329,141,0
394,195,285,219,208,329,141,247,0
195,285,219,208,329,141,247,376,0
285,219,208,329,141,247,376,183,0
219,208,329,141,247,376,183,290,0
208,329,141,247,376,183,290,257,0
329,141,247,376,183,290,257,213,0
141,247,376,183,290,257,213,326,0
247,376,183,290,257,213,326,145,0
376,183,290,257,213,326,145,231,0
183,290,257,213,326,145,231,374,0
290,257,213,326,145,231,374,207,0
257,213,326,145,231,374,207,291,0
213,326,145,231,374,207,291,261,0
326,145,231,374,207,291,261,236,0
145,231,374,207,291,261,236,296,0
231,374,207,291,261,236,296,142,0
374,207,291,261,236,296,142,248,0
207,291,261,236,296,142,248,402,0
291,261,236,296,142,248,402,184,0
261,236,296,142,248,402,184,320,0
236,296,142,248,402,184,320,247,0
296,142,248,402,184,320,247,243,0
142,248,402,184,320,247,243,319,0
248,402,184,320,247,243,319,122,0
402,184,320,247,243,319,122,223,0
184,320,247,243,319,122,223,333,0
320,247,243,319,122,223,333,190,0
247,243,319,122,223,333,190,319,0
243,319,122,223,333,190,319,274,0
319,122,223,333,190,319,274,350,0
122,223,333,190,319,274,350,452,0
223,333,190,319,274,350,452,142,0
333,190,319,274,350,452,142,208,0
190,319,274,350,452,142,208,404,0
319,274,350,452,142,208,404,202,0
274,350,452,142,208,404,202,292,0
350,452,142,208,404,202,292,273,0
452,142,208,404,202,292,273,363,0
142,208,404,202,292,273,363,469,0
208,404,202,292,273,363,469,148,0
404,202,292,273,363,469,148,225,0
202,292,273,363,469,148,225,425,0
292,273,363,469,148,225,425,203,0
273,363,469,148,225,425,203,307,0
363,469,148,225,425,203,307,237,0
469,148,225,425,203,307,237,341,0
148,225,425,203,307,237,341,446,0
225,425,203,307,237,341,446,154,0
425,203,307,237,341,446,154,218,0
203,307,237,341,446,154,218,398,0
307,237,341,446,154,218,398,194,0
237,341,446,154,218,398,194,306,0
341,446,154,218,398,194,306,239,0
446,154,218,398,194,306,239,340,0
154,218,398,194,306,239,340,467,0
218,398,194,306,239,340,467,159,0
398,194,306,239,340,467,159,228,0
194,306,239,340,467,159,228,418,0
306,239,340,467,159,228,418,207,0
239,340,467,159,228,418,207,293,0
340,467,159,228,418,207,293,259,0
467,159,228,418,207,293,259,348,0
159,228,418,207,293,259,348,466,0
228,418,207,293,259,348,466,166,0
418,207,293,259,348,466,166,254,0
207,293,259,348,466,166,254,448,0
293,259,348,466,166,254,448,187,0
259,348,466,166,254,448,187,299,0
348,466,166,254,448,187,299,227,0
466,166,254,448,187,299,227,247,0
166,254,448,187,299,227,247,355,0
254,448,187,299,227,247,355,164,0
448,187,299,227,247,355,164,251,0
187,299,227,247,355,164,251,368,0
299,227,247,355,164,251,368,218,0
227,247,355,164,251,368,218,313,0
247,355,164,251,368,218,313,231,0
355,164,251,368,218,313,231,245,0
164,251,368,218,313,231,245,396,0
251,368,218,313,231,245,396,167,0
368,218,313,231,245,396,167,250,0
218,313,231,245,396,167,250,346,0
313,231,245,396,167,250,346,240,0
231,245,396,167,250,346,240,361,0
245,396,167,250,346,240,361,264,0
396,167,250,346,240,361,264,236,0
167,250,346,240,361,264,236,410,0
250,346,240,361,264,236,410,169,0
346,240,361,264,236,410,169,283,0
240,361,264,236,410,169,283,457,0
361,264,236,410,169,283,457,248,0
264,236,410,169,283,457,248,390,0
236,410,169,283,457,248,390,262,0
410,169,283,457,248,390,262,214,0
169,283,457,248,390,262,214,433,0
283,457,248,390,262,214,433,165,0
457,248,390,262,214,433,165,268,0
248,390,262,214,433,165,268,435,0
390,262,214,433,165,268,435,239,0
262,214,433,165,268,435,239,421,0
214,433,165,268,435,239,421,275,0
433,165,268,435,239,421,275,203,0
165,268,435,239,421,275,203,422,0
268,435,239,421,275,203,422,169,0
435,239,421,275,203,422,169,250,0
239,421,275,203,422,169,250,409,0
421,275,203,422,169,250,409,236,0
275,203,422,169,250,409,236,411,0
203,422,169,250,409,236,411,276,0
422,169,250,409,236,411,276,198,0
169,250,409,236,411,276,198,392,0
250,409,236,411,276,198,392,167,0
409,236,411,276,198,392,167,244,0
236,411,276,198,392,167,244,411,0
411,276,198,392,167,244,411,202,0
276,198,392,167,244,411,202,425,0
198,392,167,244,411,202,425,287,0
392,167,244,411,202,425,287,177,0
167,244,411,202,425,287,177,361,0
244,411,202,425,287,177,361,151,0
411,202,425,287,177,361,151,230,0
202,425,287,177,361,151,230,429,0
425,287,177,361,151,230,429,177,0
287,177,361,151,230,429,177,399,0
177,361,151,230,429,177,399,281,0
361,151,230,429,177,399,281,192,0
151,230,429,177,399,281,192,355,0
230,429,177,399,281,192,355,144,0
429,177,399,281,192,355,144,207,0
177,399,281,192,355,144,207,347,0
399,281,192,355,144,207,347,157,0
281,192,355,144,207,347,157,364,0
192,355,144,207,347,157,364,287,0
355,144,207,347,157,364,287,218,0
144,207,347,157,364,287,218,291,0
207,347,157,364,287,218,291,156,0
347,157,364,287,218,291,156,227,0
157,364,287,218,291,156,227,361,0
364,287,218,291,156,227,361,175,0
287,218,291,156,227,361,175,331,0
218,291,156,227,361,175,331,270,0
291,156,227,361,175,331,270,229,0
156,227,361,175,331,270,229,303,0
227,361,175,331,270,229,303,159,0
361,175,331,270,229,303,159,233,0
175,331,270,229,303,159,233,401,0
331,270,229,303,159,233,401,171,0
270,229,303,159,233,401,171,348,0
229,303,159,233,401,171,348,291,0
303,159,233,401,171,348,291,256,0
159,233,401,171,348,291,256,317,0
233,401,171,348,291,256,317,158,0
401,171,348,291,256,317,158,241,0
171,348,291,256,317,158,241,399,0
348,291,256,317,158,241,399,189,0
291,256,317,158,241,399,189,331,0
256,317,158,241,399,189,331,288,0
317,158,241,399,189,331,288,266,0
158,241,399,189,331,288,266,308,0
241,399,189,331,288,266,308,169,0
399,189,331,288,266,308,169,276,0
189,331,288,266,308,169,276,457,0
331,288,266,308,169,276,457,182,0
288,266,308,169,276,457,182,333,0
266,308,169,276,457,182,333,264,0
308,169,276,457,182,333,264,270,0
169,276,457,182,333,264,270,378,0
276,457,182,333,264,270,378,181,0
457,182,333,264,270,378,181,261,0
182,333,264,270,378,181,261,441,0
333,264,270,378,181,261,441,198,0
264,270,378,181,261,441,198,328,0
270,378,181,261,441,198,328,254,0
378,181,261,441,198,328,254,281,0
181,261,441,198,328,254,281,422,0
261,441,198,328,254,281,422,180,0
441,198,328,254,281,422,180,246,0
198,328,254,281,422,180,246,422,0
328,254,281,422,180,246,422,196,0
254,281,422,180,246,422,196,323,0
281,422,180,246,422,196,323,265,0
422,180,246,422,196,323,265,266,0
180,246,422,196,323,265,266,424,0
246,422,196,323,265,266,424,185,0
422,196,323,265,266,424,185,244,0
196,323,265,266,424,185,244,391,0
323,265,266,424,185,244,391,198,0
265,266,424,185,244,391,198,302,0
266,424,185,244,391,198,302,235,0
424,185,244,391,198,302,235,250,0
185,244,391,198,302,235,250,414,0
244,391,198,302,235,250,414,180,0
391,198,302,235,250,414,180,247,0
198,302,235,250,414,180,247,390,0
302,235,250,414,180,247,390,205,0
235,250,414,180,247,390,205,277,0
250,414,180,247,390,205,277,256,0
414,180,247,390,205,277,256,300,0
180,247,390,205,277,256,300,508,0
247,390,205,277,256,300,508,183,0
390,205,277,256,300,508,183,232,0
205,277,256,300,508,183,232,351,0
277,256,300,508,183,232,351,228,0
256,300,508,183,232,351,228,275,0
300,508,183,232,351,228,275,260,0
508,183,232,351,228,275,260,285,0
183,232,351,228,275,260,285,475,0
232,351,228,275,260,285,475,180,0
351,228,275,260,285,475,180,248,0
228,275,260,285,475,180,248,374,0
275,260,285,475,180,248,374,228,0
260,285,475,180,248,374,228,283,0
285,475,180,248,374,228,283,269,0
475,180,248,374,228,283,269,267,0
180,248,374,228,283,269,267,448,0
248,374,228,283,269,267,448,194,0
374,228,283,269,267,448,194,272,0
228,283,269,267,448,194,272,390,0
283,269,267,448,194,272,390,234,0
269,267,448,194,272,390,234,316,0
267,448,194,272,390,234,316,283,0
448,194,272,390,234,316,283,266,0
194,272,390,234,316,283,266,428,0
272,390,234,316,283,266,428,190,0
390,234,316,283,266,428,190,264,0
234,316,283,266,428,190,264,374,0
316,283,266,428,190,264,374,257,0
283,266,428,190,264,374,257,327,0
266,428,190,264,374,257,327,298,0
428,190,264,374,257,327,298,267,0
190,264,374,257,327,298,267,450,0
264,374,257,327,298,267,450,196,0
374,257,327,298,267,450,196,264,0
257,327,298,267,450,196,264,390,0
327,298,267,450,196,264,390,244,0
298,267,450,196,264,390,244,365,0
267,450,196,264,390,244,365,269,0
450,196,264,390,244,365,269,226,0
196,264,390,244,365,269,226,351,0
264,390,244,365,269,226,351,197,0
390,244,365,269,226,351,197,256,0
244,365,269,226,351,197,256,367,0
365,269,226,351,197,256,367,237,0
269,226,351,197,256,367,237,346,0
226,351,197,256,367,237,346,259,0
351,197,256,367,237,346,259,236,0
197,256,367,237,346,259,236,323,0
256,367,237,346,259,236,323,201,0
367,237,346,259,236,323,201,278,0
237,346,259,236,323,201,278,404,0
346,259,236,323,201,278,404,239,0
259,236,323,201,278,404,239,373,0
236,323,201,278,404,239,373,270,0
323,201,278,404,239,373,270,235,0
201,278,404,239,373,270,235,320,0
278,404,239,373,270,235,320,178,0
404,239,373,270,235,320,178,262,0
239,373,270,235,320,178,262,416,0
373,270,235,320,178,262,416,231,0
270,235,320,178,262,416,231,334,0
235,320,178,262,416,231,334,230,0
320,178,262,416,231,334,230,229,0
178,262,416,231,334,230,229,325,0
262,416,231,334,230,229,325,170,0
416,231,334,230,229,325,170,268,0
231,334,230,229,325,170,268,421,0
334,230,229,325,170,268,421,211,0
230,229,325,170,268,421,211,320,0
229,325,170,268,421,211,320,240,0
325,170,268,421,211,320,240,243,0
170,268,421,211,320,240,243,306,0
268,421,211,320,240,243,306,168,0
421,211,320,240,243,306,168,267,0
211,320,240,243,306,168,267,418,0
320,240,243,306,168,267,418,214,0
240,243,306,168,267,418,214,287,0
243,306,168,267,418,214,287,251,0
306,168,267,418,214,287,251,244,0
168,267,418,214,287,251,244,316,0
267,418,214,287,251,244,316,165,0
418,214,287,251,244,316,165,267,0
214,287,251,244,316,165,267,439,0
287,251,244,316,165,267,439,225,0
251,244,316,165,267,439,225,277,0
244,316,165,267,439,225,277,273,0
316,165,267,439,225,277,273,243,0
165,267,439,225,277,273,243,314,0
267,439,225,277,273,243,314,138,0
439,225,277,273,243,314,138,226,0
225,277,273,243,314,138,226,383,0
277,273,243,314,138,226,383,210,0
273,243,314,138,226,383,210,255,0
243,314,138,226,383,210,255,265,0
314,138,226,383,210,255,265,268,0
138,226,383,210,255,265,268,322,0
226,383,210,255,265,268,322,144,0
383,210,255,265,268,322,144,204,0
210,255,265,268,322,144,204,345,0
255,265,268,322,144,204,345,200,0
265,268,322,144,204,345,200,281,0
268,322,144,204,345,200,281,278,0
322,144,204,345,200,281,278,275,0
144,204,345,200,281,278,275,333,0
204,345,200,281,278,275,333,150,0
345,200,281,278,275,333,150,204,0
200,281,278,275,333,150,204,335,0
281,278,275,333,150,204,335,213,0
278,275,333,150,204,335,213,274,0
275,333,150,204,335,213,274,275,0
333,150,204,335,213,274,275,322,0
150,204,335,213,274,275,322,429,0
204,335,213,274,275,322,429,171,0
335,213,274,275,322,429,171,207,0
213,274,275,322,429,171,207,332,0
274,275,322,429,171,207,332,226,0
275,322,429,171,207,332,226,298,0
322,429,171,207,332,226,298,310,0
429,171,207,332,226,298,310,317,0
171,207,332,226,298,310,317,448,0
207,332,226,298,310,317,448,168,0
332,226,298,310,317,448,168,199,0
226,298,310,317,448,168,199,316,0
298,310,317,448,168,199,316,212,0
310,317,448,168,199,316,212,301,0
317,448,168,199,316,212,301,308,0
448,168,199,316,212,301,308,329,0
168,199,316,212,301,308,329,459,0
199,316,212,301,308,329,459,178,0
316,212,301,308,329,459,178,227,0
212,301,308,329,459,178,227,329,0
301,308,329,459,178,227,329,207,0
308,329,459,178,227,329,207,306,0
329,459,178,227,329,207,306,300,0
459,178,227,329,207,306,300,312,0
178,227,329,207,306,300,312,448,0
227,329,207,306,300,312,448,177,0
329,207,306,300,312,448,177,238,0
207,306,300,312,448,177,238,317,0
306,300,312,448,177,238,317,214,0
300,312,448,177,238,317,214,304,0
312,448,177,238,317,214,304,277,0
448,177,238,317,214,304,277,337,0
177,238,317,214,304,277,337,485,0
238,317,214,304,277,337,485,172,0
317,214,304,277,337,485,172,240,0
214,304,277,337,485,172,240,315,0
304,277,337,485,172,240,315,210,0
277,337,485,172,240,315,210,326,0
337,485,172,240,315,210,326,258,0
485,172,240,315,210,326,258,270,0
172,240,315,210,326,258,270,389,0
240,315,210,326,258,270,389,163,0
315,210,326,258,270,389,163,241,0
210,326,258,270,389,163,241,311,0
326,258,270,389,163,241,311,224,0
258,270,389,163,241,311,224,351,0
270,389,163,241,311,224,351,212,0
389,163,241,311,224,351,212,251,0
163,241,311,224,351,212,251,340,0
241,311,224,351,212,251,340,165,0
311,224,351,212,251,340,165,249,0
224,351,212,251,340,165,249,331,0
351,212,251,340,165,249,331,221,0
212,251,340,165,249,331,221,361,0
251,340,165,249,331,221,361,209,0
340,165,249,331,221,361,209,242,0
165,249,331,221,361,209,242,334,0
249,331,221,361,209,242,334,160,0
331,221,361,209,242,334,160,229,0
221,361,209,242,334,160,229,326,0
361,209,242,334,160,229,326,227,0
209,242,334,160,229,326,227,340,0
242,334,160,229,326,227,340,230,0
334,160,229,326,227,340,230,245,0
160,229,326,227,340,230,245,372,0
229,326,227,340,230,245,372,168,0
326,227,340,230,245,372,168,234,0
227,340,230,245,372,168,234,322,0
340,230,245,372,168,234,322,230,0
230,245,372,168,234,322,230,322,0
245,372,168,234,322,230,322,280,0
372,168,234,322,230,322,280,243,0
168,234,322,230,322,280,243,352,0
234,322,230,322,280,243,352,167,0
322,230,322,280,243,352,167,228,0
230,322,280,243,352,167,228,327,0
322,280,243,352,167,228,327,242,0
280,243,352,167,228,327,242,343,0
243,352,167,228,327,242,343,292,0
352,167,228,327,242,343,292,261,0
167,228,327,242,343,292,261,408,0
228,327,242,343,292,261,408,171,0
327,242,343,292,261,408,171,311,0
242,343,292,261,408,171,311,437,0
343,292,261,408,171,311,437,221,0
292,261,408,171,311,437,221,291,0
261,408,171,311,437,221,291,289,0
408,171,311,437,221,291,289,261,0
171,311,437,221,291,289,261,403,0
311,437,221,291,289,261,403,164,0
437,221,291,289,261,403,164,348,0
221,291,289,261,403,164,348,474,0
291,289,261,403,164,348,474,212,0
289,261,403,164,348,474,212,282,0
261,403,164,348,474,212,282,271,0
403,164,348,474,212,282,271,254,0
164,348,474,212,282,271,254,401,0
348,474,212,282,271,254,401,166,0
474,212,282,271,254,401,166,353,0
212,282,271,254,401,166,353,472,0
282,271,254,401,166,353,472,211,0
271,254,401,166,353,472,211,290,0
254,401,166,353,472,211,290,270,0
401,166,353,472,211,290,270,269,0
166,353,472,211,290,270,269,427,0
353,472,211,290,270,269,427,152,0
472,211,290,270,269,427,152,340,0
211,290,270,269,427,152,340,472,0
290,270,269,427,152,340,472,214,0
270,269,427,152,340,472,214,299,0
269,427,152,340,472,214,299,261,0
427,152,340,472,214,299,261,236,0
152,340,472,214,299,261,236,394,0
340,472,214,299,261,236,394,157,0
472,214,299,261,236,394,157,349,0
214,299,261,236,394,157,349,494,0
299,261,236,394,157,349,494,210,0
261,236,394,157,349,494,210,266,0
236,394,157,349,494,210,266,257,0
394,157,349,494,210,266,257,211,0
157,349,494,210,266,257,211,331,0
349,494,210,266,257,211,331,133,0
494,210,266,257,211,331,133,305,0
210,266,257,211,331,133,305,474,0
266,257,211,331,133,305,474,194,0
257,211,331,133,305,474,194,265,0
211,331,133,305,474,194,265,286,0
331,133,305,474,194,265,286,251,0
133,305,474,194,265,286,251,393,0
305,474,194,265,286,251,393,130,0
474,194,265,286,251,393,130,246,0
194,265,286,251,393,130,246,397,0
265,286,251,393,130,246,397,199,0
286,251,393,130,246,397,199,276,0
251,393,130,246,397,199,276,291,0
393,130,246,397,199,276,291,249,0
130,246,397,199,276,291,249,383,0
246,397,199,276,291,249,383,141,0
397,199,276,291,249,383,141,242,0
199,276,291,249,383,141,242,391,0
276,291,249,383,141,242,391,237,0
291,249,383,141,242,391,237,327,0
249,383,141,242,391,237,327,281,0
383,141,242,391,237,327,281,219,0
141,242,391,237,327,281,219,318,0
242,391,237,327,281,219,318,145,0
391,237,327,281,219,318,145,282,0
237,327,281,219,318,145,282,438,0
327,281,219,318,145,282,438,230,0
281,219,318,145,282,438,230,320,0
219,318,145,282,438,230,320,247,0
318,145,282,438,230,320,247,258,0
145,282,438,230,320,247,258,396,0
282,438,230,320,247,258,396,146,0
438,230,320,247,258,396,146,273,0
230,320,247,258,396,146,273,439,0
320,247,258,396,146,273,439,219,0
247,258,396,146,273,439,219,335,0
258,396,146,273,439,219,335,231,0
396,146,273,439,219,335,231,273,0
146,273,439,219,335,231,273,413,0
273,439,219,335,231,273,413,148,0
439,219,335,231,273,413,148,234,0
219,335,231,273,413,148,234,341,0
335,231,273,413,148,234,341,214,0
231,273,413,148,234,341,214,346,0
273,413,148,234,341,214,346,173,0
413,148,234,341,214,346,173,231,0
148,234,341,214,346,173,231,360,0
234,341,214,346,173,231,360,146,0
341,214,346,173,231,360,146,248,0
214,346,173,231,360,146,248,327,0
346,173,231,360,146,248,327,216,0
173,231,360,146,248,327,216,321,0
231,360,146,248,327,216,321,177,0
360,146,248,327,216,321,177,238,0
146,248,327,216,321,177,238,386,0
248,327,216,321,177,238,386,163,0
327,216,321,177,238,386,163,260,0
216,321,177,238,386,163,260,345,0
321,177,238,386,163,260,345,170,0
177,238,386,163,260,345,170,266,0
238,386,163,260,345,170,266,239,0
386,163,260,345,170,266,239,286,0
163,260,345,170,266,239,286,415,0
260,345,170,266,239,286,415,160,0
345,170,266,239,286,415,160,217,0
170,266,239,286,415,160,217,275,0
266,239,286,415,160,217,275,183,0
239,286,415,160,217,275,183,268,0
286,415,160,217,275,183,268,262,0
415,160,217,275,183,268,262,265,0
160,217,275,183,268,262,265,380,0
217,275,183,268,262,265,380,160,0
275,183,268,262,265,380,160,209,0
183,268,262,265,380,160,209,251,0
268,262,265,380,160,209,251,185,0
262,265,380,160,209,251,185,255,0
265,380,160,209,251,185,255,275,0
380,160,209,251,185,255,275,288,0
160,209,251,185,255,275,288,392,0
209,251,185,255,275,288,392,168,0
251,185,255,275,288,392,168,231,0
185,255,275,288,392,168,231,287,0
255,275,288,392,168,231,287,189,0
275,288,392,168,231,287,189,243,0
288,392,168,231,287,189,243,281,0
392,168,231,287,189,243,281,293,0
168,231,287,189,243,281,293,402,0
231,287,189,243,281,293,402,168,0
287,189,243,281,293,402,168,205,0
189,243,281,293,402,168,205,284,0
243,281,293,402,168,205,284,191,0
281,293,402,168,205,284,191,261,0
293,402,168,205,284,191,261,284,0
402,168,205,284,191,261,284,307,0
168,205,284,191,261,284,307,464,0
205,284,191,261,284,307,464,157,0
284,191,261,284,307,464,157,196,0
191,261,284,307,464,157,196,254,0
261,284,307,464,157,196,254,201,0
284,307,464,157,196,254,201,282,0
307,464,157,196,254,201,282,234,0
464,157,196,254,201,282,234,258,0
157,196,254,201,282,234,258,430,0
196,254,201,282,234,258,430,162,0
254,201,282,234,258,430,162,282,0
201,282,234,258,430,162,282,372,0
282,234,258,430,162,282,372,198,0
234,258,430,162,282,372,198,292,0
258,430,162,282,372,198,292,213,0
430,162,282,372,198,292,213,282,0
162,282,372,198,292,213,282,423,0
282,372,198,292,213,282,423,162,0
372,198,292,213,282,423,162,297,0
